0,1,2,3,4,5,6,7,8,9
4.5589213,5.686506,4.6644697,4.6028266,1.8554081,3.6781259,2.9028773,2.3322146,6.659178,3.0230155
4.7123413,5.921687,5.2396655,4.8599644,2.2002454,3.9798965,3.0589542,2.4678621,6.7038174,4.3057804
4.539142,5.293573,4.0190997,4.7676067,1.9728515,3.8198562,3.0317817,1.6003622,6.401609,3.8874714
4.6764483,6.6439686,5.571772,4.998278,2.7201164,4.076083,3.1243658,2.4952645,6.35884,5.3069363
5.007357,6.521801,5.362783,5.4601936,3.2762804,4.5481586,3.0584803,3.4926898,6.533007,6.7293506
3.7261693,6.9809165,5.793973,3.9273775,2.1342108,3.7065732,2.6306026,4.283096,6.67361,6.752891
3.8307772,4.9904838,4.0661173,3.9861453,1.788796,3.4874384,2.9055562,2.6117265,6.575938,4.104406
4.429573,4.8016396,3.3063984,4.7290926,2.1715543,3.9049172,2.952813,2.089171,6.922766,4.1399517
3.9952927,6.0054717,4.6526504,4.093752,2.274054,4.106939,3.2129755,2.954195,6.544603,5.739484
4.444745,5.122092,3.7756093,5.0034075,1.72699,3.6169028,2.8441932,1.9397101,4.5402365,3.407237
4.7552886,6.3148813,5.26659,4.9688725,2.219166,3.6286812,2.7637174,2.7410963,6.5360737,3.8478358
4.700939,6.243559,5.047051,4.8990817,1.960493,3.215972,2.5992901,2.267793,6.2789073,3.262666
3.6107202,7.488563,6.0162516,3.7521977,2.086274,3.7842627,3.1302178,3.413682,7.5171742,6.1287622
4.7270904,5.6663036,4.460448,4.8305683,2.307869,3.800986,2.9116547,2.441673,6.571439,3.0363424
4.061939,4.894801,3.1716616,4.2248983,1.9217628,3.6744375,3.2141216,2.1045542,6.646649,3.9868295
5.1209464,8.530804,7.3662047,4.8732243,2.7796695,2.6086879,1.7533766,2.7450383,6.181019,3.9957423
4.448078,3.90384,3.1804683,4.494054,2.1010797,3.538746,2.6446292,1.6430452,6.125498,3.309045
4.3297224,5.2040715,4.1462193,4.477933,2.1412396,3.9433613,3.4458206,1.7796366,6.9762793,3.9861856
3.6601334,4.759313,3.2170465,4.150714,1.8216898,3.0427094,2.5595634,2.0071373,5.750899,3.5429032
4.4193425,5.0780387,3.912686,4.8077407,2.117608,3.765086,2.9346085,1.9369358,6.7157393,3.3880916
5.022937,7.1352797,6.4738593,5.0697765,3.0077205,2.4416564,1.2997823,2.0162563,5.954951,3.5498095
5.104363,5.486783,4.6633716,4.5577626,1.9358282,2.2126474,1.396539,1.8907471,3.461029,2.8711257
3.877086,5.625834,4.761006,4.1296954,2.3715105,1.8537976,1.3162323,1.9518865,3.3635252,3.0541341
4.112646,4.1562767,3.6192076,4.351934,2.0901532,3.3652537,2.5010228,1.7782823,6.27189,3.4438868
3.6117606,5.621336,5.0067825,3.963217,1.653125,2.8971736,2.1685424,2.656497,5.259832,3.6216626
4.5140576,4.950894,4.44695,4.6730156,2.0195925,3.8925934,2.927535,2.0988035,6.835648,3.9392831
4.9730363,6.01942,4.961711,5.0689373,1.7633463,2.9199343,1.5084677,2.25275,4.127799,2.7968893
4.6819243,5.5494065,4.9902773,4.508847,2.3149161,2.3122344,1.2367616,2.2895055,2.978483,3.1436808
4.878931,5.073129,4.1919966,5.2058992,2.5672176,4.417435,3.6261375,1.9848149,6.841217,3.825216
5.2727923,6.0738053,4.652253,5.4322953,3.7063973,3.9505322,2.7833176,2.1721277,6.520139,5.318564
4.3167295,5.5248833,4.8261437,4.2722974,2.153955,2.3185806,1.2959864,2.4986987,3.6663022,3.1194415
4.7159023,6.3747106,5.102108,4.731804,1.965525,3.3081613,2.3959908,2.6547549,6.517103,3.290884
4.00754,7.604446,6.508654,4.0568094,1.9280154,2.727283,1.5366837,2.870041,4.738963,3.7821453
4.8833385,8.703082,6.2083206,5.23257,1.5562043,3.2226722,2.3631442,2.9455864,8.318374,4.4632535
4.9997582,5.3923926,4.5437255,4.939941,2.2492115,2.6125455,1.7977388,2.1128783,3.374843,3.017649
4.177153,6.6019316,4.8304057,4.429976,2.411006,4.256203,3.9548104,2.8233073,7.726362,4.614713
4.1580224,5.7796717,4.979993,4.0216846,1.9950147,2.347653,1.513871,2.2710466,3.3375494,2.878278
3.3330312,4.7132373,3.9074056,3.1925566,2.023905,2.7152715,1.6072652,2.6734955,4.4781327,3.0121183
4.035869,5.5829687,4.5236616,4.125719,1.8766147,3.6408408,2.9930856,2.4357462,6.764889,3.9904747
3.1627028,3.6470706,3.4879248,3.4247901,2.1095269,2.501572,1.7169658,2.0331864,4.455796,2.6097002
5.0371737,6.4358172,5.498482,4.835617,1.624204,3.0348232,2.3062296,2.9110188,5.2976785,3.3615563
4.9478045,8.086306,5.765198,4.7742867,1.6375908,3.3849008,1.7793065,3.329621,8.748647,5.809055
3.7057216,7.13594,5.889808,3.7341247,2.270368,4.0258865,3.005057,3.0392718,6.8422785,6.8751163
3.9346623,6.12467,5.028532,4.1305633,2.229527,2.423566,1.8390691,2.4582586,4.1640863,3.035902
3.9708986,6.2169366,4.7448463,4.027619,2.2332292,3.9173193,3.5454476,2.768703,6.999557,4.7375035
4.7291527,5.6040053,4.6605964,4.963634,1.7476552,3.6404674,2.880823,2.1694455,6.3298936,3.8278964
3.753701,5.594916,4.7891173,4.0844007,2.050611,2.2589872,1.6740389,2.2124887,3.3553004,3.0753608
4.291189,6.5362496,5.186653,4.769477,1.9196457,3.8800159,2.789187,4.1437926,6.814585,6.1171346
4.3811913,5.4424424,4.5863147,4.616374,2.2133698,3.749146,2.8928657,2.092284,6.794798,3.3376174
3.9289103,5.6801243,4.7991486,4.3101354,2.413257,2.1416717,1.6352894,2.2064118,3.5218663,3.2874837
3.8831484,4.439537,3.6397142,3.9350045,1.9026045,3.6551871,2.848322,2.3477225,6.198508,3.994632
3.8058393,5.4499707,4.7573547,4.0565376,2.0070784,2.1620202,1.6014923,2.2005537,3.3476903,3.1213224
4.205862,5.1582413,3.8212636,4.4236245,1.9145806,3.531236,2.9941947,2.0317025,6.619244,4.1267447
4.4270406,7.0488605,5.2785378,4.55939,1.9714289,3.2754354,2.4034898,2.548426,7.12011,4.8622875
5.6868696,5.9078803,5.1074324,5.3751674,2.2640476,2.326704,1.1706781,2.250842,2.952156,3.0140896
4.1976833,4.1867046,4.025855,4.4050274,2.0243847,3.6015227,2.631964,1.9554695,6.089069,3.8708396
4.7010427,4.7910986,4.2851257,4.7937207,2.3744073,3.6492038,2.5389385,2.3339562,5.8772273,3.8533483
4.5885906,5.8384914,4.6271873,5.0068974,2.736885,3.856826,2.812285,1.986766,6.927812,3.8820324
5.0322075,5.3416686,4.890255,5.282453,1.6598368,3.2230184,1.8995805,2.424122,4.6165314,3.3197834
4.0076537,7.2691054,5.818727,4.428811,2.236803,3.6687472,2.8286388,4.451953,7.0447855,6.8148365
4.3862557,5.218791,4.6978636,4.6361065,2.0335305,3.725106,2.981607,2.024041,5.928003,3.5210257
4.8543673,6.0073295,5.093593,4.8194747,1.919753,3.0338614,2.3278785,2.362932,6.3151307,3.390831
3.630927,4.489334,3.1567347,3.775094,1.6668843,3.5074852,3.0295386,2.7550898,6.872797,4.0937657
4.6396303,7.1672783,6.104623,5.1907263,2.4551947,4.352935,3.5693967,2.7117872,6.7986526,4.1109266
3.751197,3.5945587,2.8770678,4.005079,1.8075093,3.2951372,2.384843,2.1928902,5.9932284,3.9087794
3.7670734,5.1260767,3.9357345,3.8241544,1.8580903,3.5383484,2.9890025,2.799853,7.0045476,4.255832
4.4331646,5.480924,4.4485893,4.6210837,1.5437597,3.1104527,2.0284085,2.0039718,4.4317493,2.8103786
3.497946,5.024321,4.471436,3.3915918,2.3855734,1.7226529,1.2571815,2.2210627,3.4661741,3.1715646
4.7312226,6.0474663,4.7499275,4.826123,1.8765781,3.3197944,2.4997025,2.447668,6.61846,2.9739034
4.055897,3.8871682,3.2628167,4.277536,1.8147664,3.2858615,2.4721942,1.7480685,6.1479416,3.5743148
3.8179202,5.113855,3.4470947,4.0463357,1.8766228,3.4679494,3.0392532,2.7837832,7.50693,4.4709725
4.651107,5.075039,4.0162454,4.88685,2.1080272,3.9496958,3.0195646,1.5198466,6.620265,3.9295914
4.917124,5.532787,4.697841,5.011123,2.3152335,3.7223446,2.810289,2.1711287,6.6010966,3.5682113
4.6767416,5.295272,4.3056374,4.5823097,1.8842272,2.714441,1.9879129,1.6044378,3.7510018,2.9956894
3.0489001,8.392638,6.260307,3.1764634,1.910308,2.502114,2.1088858,3.5427418,8.217556,5.946835
4.340844,5.9485555,4.6363463,4.3120813,2.0527408,3.9267125,3.5549908,2.3532987,7.733372,4.016936
3.7090158,6.7036505,5.892075,4.022499,3.1491208,2.6216998,1.6735637,2.8302166,4.1673527,3.5771904
3.8898983,4.745318,4.0030055,4.118517,1.784622,3.594292,2.8253186,1.7485975,6.231254,3.5592937
3.622245,8.637723,6.3456106,3.8879473,2.4948938,2.926123,2.4867208,3.4625318,8.086722,5.673422
4.406368,4.427201,3.411339,4.560229,2.305203,3.6521494,2.814626,1.8697385,6.59797,3.4912567
4.1848326,4.64039,4.3945327,4.2614794,1.9884242,3.451316,2.6313856,1.7577938,6.5833445,3.7503235
4.413104,8.114086,6.0741987,4.52407,2.2375875,4.000291,3.611871,2.991413,8.065136,5.405122
4.437499,6.5145917,5.601444,4.0003924,2.0102007,2.7176335,1.3464428,2.8612044,3.5737588,3.8622649
4.61374,5.400763,4.426537,4.779565,2.155329,3.8016484,2.989468,1.9820052,6.865204,4.1168575
4.3627057,5.333514,4.2844357,4.4950204,2.0351524,3.9706662,3.235236,1.9269333,6.707892,3.842144
4.202419,4.509852,3.6897442,3.9110518,2.4775174,3.4447422,1.7833369,2.0980723,4.0346456,3.0493736
4.679981,5.2689457,4.415535,4.914624,2.1326058,3.8709588,3.0731502,2.049481,6.5769334,3.2977664
5.0300145,6.04621,5.1381426,5.365512,2.0519426,2.844544,1.5223441,2.3311007,4.2131476,3.0283592
3.5976913,7.3461714,5.8676467,3.7566113,2.38386,3.8460314,3.2591267,3.8023267,7.669029,5.687894
4.1935544,6.8985057,5.3238335,4.7338142,1.666985,3.7235563,2.9318156,4.543872,7.0792522,6.7399898
4.8479385,6.353317,5.23264,5.0455966,2.489433,3.5097933,2.4997947,3.167169,5.950365,4.4925537
4.3536963,5.8730006,5.0283294,4.268424,2.201304,2.151999,1.6205949,2.482954,3.9864635,2.9448729
4.0255775,4.193866,3.5708349,4.0868106,1.8026634,3.5503337,2.8761787,2.1799672,6.2299695,3.8079922
3.9773347,4.5310235,3.6710246,4.122882,2.068342,3.734687,3.2108283,2.1850867,6.4470267,4.070848
4.345915,4.845213,4.003299,4.495,2.011547,3.4924896,2.4516177,1.9001683,6.39413,3.2463899
4.805246,6.1730986,4.9973397,4.825203,1.7082689,3.3092325,2.6074972,2.5107033,6.431795,3.3022249
4.3002734,6.3939524,5.389488,4.3170547,1.7602782,3.4326293,2.9876199,2.3265567,6.5024133,3.2319882
4.2259097,5.7971525,4.687582,4.571447,1.6476957,2.7908933,2.0657592,2.3073125,5.1380806,3.2468586
4.1426587,4.1856656,3.1149147,4.4483314,1.9980602,3.4349506,2.6034908,1.7193491,6.1368923,3.5132046
4.60015,5.417475,4.8542986,4.7864485,2.0462506,3.715023,2.8008194,2.3418114,6.974408,4.113626
4.4592814,4.652302,3.5749846,4.667738,2.175085,3.772611,2.908299,1.8528942,6.877192,4.00314
4.6046805,5.476222,4.734213,4.7914906,2.367288,3.8092759,2.9134636,2.4929981,6.9804716,3.610868
4.927643,5.9190745,5.081346,4.5175276,1.9166058,2.4453702,1.5151757,2.1557236,3.535275,2.7688687
4.0376644,5.1820836,3.3642588,4.3069606,1.9419122,3.598623,3.2271328,2.5518057,7.471592,4.0876484
3.973623,3.9139225,2.8330474,3.262483,2.7064812,2.324936,0.7322669,1.7741799,3.9882267,2.9710364
4.555992,5.2662196,4.9845037,4.7613344,2.0559497,3.5669272,2.7523053,2.2476969,6.136747,3.7291448
4.9002967,6.127414,4.9904685,4.5468473,1.8796633,2.6215522,1.838812,2.098323,3.5091488,2.8340955
4.3676987,5.379133,4.2433524,4.508443,2.2409596,3.9561486,3.5491383,2.2654765,6.9565306,3.7362761
4.1775556,5.127165,3.805424,4.29176,1.9531553,3.5650272,2.7795014,2.038762,6.4885,3.8397205
3.66165,5.457134,4.6725264,3.8530672,1.6859202,2.5657506,1.771451,2.2167454,3.3404467,3.0553124
3.800199,7.3240223,5.755995,4.1916986,2.1869192,3.708515,3.0210948,2.8955448,6.4566574,6.4018106
4.2218657,8.174944,6.0638328,4.337543,1.7462302,2.9094903,2.2627237,3.031041,8.235477,5.4433727
6.0731187,8.636745,5.5060472,5.7862973,3.541433,3.4480374,1.6100255,3.6736128,9.193014,6.925825
4.8419905,5.885364,5.5121017,4.7620993,1.9676812,2.4259465,1.4302237,2.6408103,2.6614995,3.7551768
7.032474,6.2857027,5.39251,5.8758993,2.805152,2.3448353,1.087532,2.4451158,4.2566633,3.798449
4.599259,5.030329,3.6993058,4.812023,1.5904171,3.099871,1.8354636,1.8350072,4.5016584,3.024042
4.5975666,5.5768995,4.1313066,4.869568,2.5573568,3.489472,2.6134045,1.9965901,6.850998,3.6184037
4.4700046,6.3525662,5.1361365,4.547473,1.9222828,3.18695,2.7343142,2.2760122,6.2886147,3.0137296
4.216522,7.8534994,5.9865966,4.4618816,1.895262,3.58184,3.0466871,3.8073936,8.195429,5.946732
4.129975,6.931289,5.3243833,4.528182,1.870224,3.684681,2.9178047,2.9048612,6.7688704,4.779427
5.0162835,6.977585,5.458539,5.217887,3.3412478,5.5370893,4.606789,5.0400686,6.963439,7.136567
4.4627776,5.343731,4.026097,4.664965,2.3460763,4.081998,3.2098682,2.0769796,6.640441,4.16699
4.671102,6.658179,5.738865,4.814634,1.7385556,3.3618014,2.6046114,3.1837857,6.8406997,4.0492606
4.490422,5.3444004,4.375971,4.6806865,2.403282,3.6796248,2.831695,2.0637186,6.544451,3.7628376
5.526217,7.5084167,5.64029,5.402139,3.744462,5.0462728,3.1083057,3.2317412,6.6947207,6.5506005
4.861905,7.513985,5.657517,4.8949466,2.211073,3.799654,2.8234162,2.4973655,7.4976153,5.304855
4.4469576,6.153621,5.229257,4.5904045,2.0306413,2.4492095,1.6039544,2.3612733,3.5582068,2.9238856
4.6573668,6.042285,4.9881306,4.610372,1.6360078,3.5521739,2.9719465,2.1539974,6.326063,3.4171937
3.7160444,6.283256,5.251587,4.003892,1.770125,3.198309,2.257941,3.3215635,5.634231,5.5055776
4.7982626,5.347607,4.3835397,4.980997,2.3362699,3.6069105,2.6933515,2.0093758,6.1799746,2.9265823
4.726063,5.6774416,4.7290587,4.907093,2.3163133,3.8413901,3.3950212,2.006898,6.225945,3.4434075
4.5705786,6.1590776,5.413453,4.7022457,2.0825121,3.5535245,2.573322,3.2111073,6.4948015,4.386318
3.7534585,5.009908,4.120437,3.8887916,1.962255,2.2905803,1.5621033,1.9697044,3.818025,3.2371306
3.7729552,6.96098,5.2344065,3.8344724,1.983905,3.958,3.1552653,2.8376372,6.6285415,6.2236066
3.9518588,8.369653,5.8586636,4.154887,1.9127177,3.0380864,2.4594553,2.5474827,7.855526,4.5995007
4.787637,5.3699217,4.6883583,4.892384,1.9450454,3.0950925,1.6870592,1.9359479,4.3001604,2.8299325
4.6468754,6.302884,5.719779,4.7510247,2.2518227,3.2367377,2.4019969,3.0220656,6.650399,4.141756
4.463381,5.736174,4.663959,4.514227,1.846445,3.6593723,3.2240012,2.0180874,6.3796387,3.3487518
5.1002007,7.4972363,5.983223,5.2325788,3.4311538,5.518212,4.9025908,5.366928,7.4614525,7.606393
3.6750755,5.008245,4.2432413,3.7794857,2.013826,2.2434766,1.4227507,1.9084582,3.935841,2.9562023
4.3089094,4.4514356,3.7736468,4.617721,1.9599822,3.6549034,2.8846076,1.7284182,6.5867977,3.784681
4.706289,9.376712,6.5990696,4.3425436,2.180573,2.2621622,1.6473773,2.756729,7.1697283,4.5240545
3.9771414,7.829075,6.0077705,4.33691,2.0066142,3.8089993,3.251196,3.9986413,7.7376103,5.486846
3.724125,5.058341,3.7396412,3.9512646,2.3282676,3.5467696,3.0911448,2.0087156,6.969323,4.061994
4.8604207,6.0919724,5.319679,5.056786,2.4429862,3.9473367,2.900991,3.0620334,6.048755,3.831285
4.439824,5.5690975,4.9082584,4.5837703,2.0635383,3.830364,3.0372028,2.546668,6.7507153,3.9505746
4.7384076,5.348165,4.9414687,4.8919597,2.5138607,4.0357985,2.9644725,2.432447,6.631508,3.7235835
4.7116723,5.729946,4.7646656,4.43362,1.7564274,2.4448109,1.7326608,2.1193285,3.7272472,2.7113209
4.422148,5.0119486,3.9655013,4.5728784,2.2613165,4.0951757,3.5380654,1.9562507,6.67334,3.9908495
4.678545,6.7560863,5.459758,5.043896,2.841997,4.081418,2.851016,2.778045,6.15518,5.046991
4.0036235,4.2438884,3.4737365,4.3570223,1.8963577,3.4198985,2.5343444,1.7123511,6.2213063,3.605592
4.759036,6.80163,5.593002,4.8145924,2.9314623,5.0944467,4.018778,4.2756886,6.5612445,6.2957535
4.0327773,5.1678143,4.3828726,4.2168713,1.8407362,2.5480475,1.8880608,1.9497982,3.7260444,2.9006858
3.6581843,5.5679474,4.830196,3.744673,2.0978513,2.3384535,1.7008725,2.4769917,3.612559,3.1239116
4.0143757,8.176234,6.145444,4.2019167,2.148994,3.5541408,3.073242,4.3353987,8.112794,7.1588836
4.2724977,5.8622856,4.9429216,4.5572805,2.0565033,3.775913,2.9669397,2.1288948,6.4116616,3.6846743
4.3437185,4.836776,4.0001864,4.578675,1.9521013,3.6474807,2.9215348,2.1801815,6.801965,3.541084
4.450348,5.1875014,4.660206,4.368585,2.2656922,2.3503845,1.3380232,1.8970149,3.548461,3.112261
4.630943,8.487357,6.192007,4.9183226,1.8452494,2.7240613,2.0853522,3.6556993,9.09556,5.473483
3.3705335,5.127757,4.253935,3.4767826,2.0890427,2.37957,1.6032325,2.1714764,3.990467,3.1130712
4.9657106,7.0112433,5.3566,4.9566636,3.230682,5.4359465,4.184882,4.6709194,6.81815,6.859996
4.766346,6.1745443,5.411417,5.013249,2.5196245,3.7193189,2.5626354,3.261367,6.030336,4.3233876
5.184633,6.4970174,5.2926245,5.5007854,3.4123538,3.710901,2.2180579,2.95475,6.609398,4.510596
3.1456773,4.205945,2.9786117,3.04947,2.5135126,2.3283348,1.6058334,1.9709005,4.642065,3.1412637
3.965309,5.0250754,4.2809772,3.969661,2.5224524,1.9471226,1.3747128,1.7127714,3.5341067,3.0161695
4.2227263,5.5965033,4.9760184,4.1486354,2.5151167,2.2684216,1.5965658,2.483488,3.235629,3.1995354
4.643564,6.0810266,5.369441,4.9974847,2.6267064,3.7367845,2.6474643,2.8598254,6.1932364,4.1306853
4.7139645,6.3992786,5.295192,4.766755,1.8722494,3.6533494,2.9836285,2.932344,6.5961337,3.438721
4.4404016,4.4735293,3.9724195,4.642486,2.430196,3.581195,2.3457315,2.1775436,5.567308,3.660041
4.4635196,5.1352286,4.57386,4.6007643,2.0889328,3.7435737,2.8365629,2.074459,6.294985,3.2650216
4.1013637,3.8734314,3.3837755,4.178272,2.030802,3.409066,2.5568957,1.9133242,6.36548,3.6394172
4.687962,5.131635,4.432244,4.752652,2.1502905,3.8598545,2.9490001,2.105248,6.6009417,3.6331978
3.9923198,5.478991,4.7023897,4.2599854,2.1804435,3.9679518,3.44798,2.007256,7.2073884,4.0656285
3.8346326,4.7212944,3.7769015,3.9617834,1.7750382,3.337874,2.4109118,2.775019,6.1415234,4.034376
4.650266,5.8419867,4.5539303,4.9594646,2.3926196,3.5337317,2.766673,1.8495615,6.2593656,3.2775416
3.5634594,5.5351596,4.567085,3.644349,1.6318192,2.8647876,1.9619702,2.4805448,6.4478574,4.02693
4.177319,5.62535,4.1559362,4.3348365,2.2204437,3.9038177,3.4068434,2.394112,7.1832843,4.180583
5.078554,5.5109553,4.391697,5.291778,1.5981218,3.2118776,1.9590049,1.8840991,4.646704,2.9429166
4.624772,4.9278975,4.475052,4.7910047,2.2298555,3.6807282,2.7768946,2.0248818,6.409568,3.7981117
4.4290643,4.9036555,4.3213506,4.5812955,2.3499422,3.345136,2.4543874,1.8242135,6.155373,3.3438487
4.1314454,4.443948,3.682327,4.375831,1.9234147,3.597829,2.7608948,1.818754,6.3526044,3.498813
4.0002165,5.9997935,4.926503,4.2214427,1.7625316,2.9128015,2.3812575,2.5776398,5.01769,3.3465068
4.052538,8.406447,6.3821692,4.02942,1.7947104,3.228291,2.8071733,3.2924461,8.568941,5.7439704
4.819693,5.263597,4.204645,4.9896884,2.116491,3.9759254,3.1475227,2.1867926,6.5630803,3.6775234
3.6247842,5.3968086,5.118915,3.3967836,2.3150308,1.941866,1.1781117,2.0514848,3.0983555,3.3895886
4.2048764,6.2060747,5.3198156,4.4609985,1.8995564,2.95867,2.0955994,3.026178,5.372472,3.3573055
4.1712613,6.800145,5.0525904,4.4817905,1.6019804,2.8027828,1.864056,2.8712513,5.2312646,3.9855204
4.5123467,6.134408,5.2036915,4.405955,1.9939938,2.24757,1.467118,2.320401,3.31704,3.0873513
4.103016,5.2942038,3.575551,4.5297775,1.7957739,3.358735,2.8605,2.094423,6.01797,3.5294197
4.747992,5.679224,4.434946,4.8485413,2.0483038,3.4215143,2.529407,2.415297,6.6844716,2.9712784
3.7399564,5.9012733,4.6534905,4.0387783,2.2344031,3.8856022,3.5257883,2.992223,7.3463078,4.8600764
5.19507,7.048791,5.5681806,5.148919,3.5475557,5.699922,4.3918056,4.917189,6.835005,7.033851
3.7104266,5.0661464,4.4896193,3.6475365,2.1292462,2.2308416,1.239719,2.0023165,3.6707337,3.1124537
4.3988547,4.3851767,4.1889296,4.586995,2.4274013,3.5374756,2.3210053,2.021452,5.8695183,3.5832052
4.4183106,5.378547,4.578256,4.364255,2.3949668,1.9855454,1.3238082,1.8876725,3.8175817,2.6194813
4.351066,4.57117,4.0476637,4.5835004,1.9999714,4.044197,3.3485832,2.5173924,6.7340407,3.9553459
4.0508523,4.743927,3.8600633,4.240124,1.8124527,3.432632,2.5034058,2.189649,6.0557427,3.9233289
3.4726794,5.004599,4.367574,3.4728198,2.06582,2.3754432,1.3271567,2.0717442,3.5464835,2.9736474
4.225887,7.192,5.6509495,4.6951222,2.3811445,3.8428547,2.9668252,4.312694,6.938995,6.0052595
4.6335692,5.0487823,4.2788253,5.046591,1.7059493,2.8963797,1.697796,1.5957204,4.080678,2.8628776
