0,1,2,3,4,5,6,7,8,9,10,11,12,13,14,15,16,17,18,19,20,21,22,23,24,25,26,27,28,29,30,31,32,33,34,35,36,37,38,39,40,41,42,43,44,45,46,47,48,49,50,51,52,53,54,55,56,57,58,59,60,61,62,63,64,65,66,67,68,69,70,71,72,73,74,75,76,77,78,79,80,81,82,83,84,85,86,87,88,89,90,91,92,93,94,95,96,97,98,99,100,101,102,103,104,105,106,107,108,109,110,111,112,113,114,115,116,117,118,119,120,121,122,123,124,125,126,127,128,129,130,131,132,133,134,135,136,137,138,139
0.8598423587341237,0.6808654521134796,0.5091426968036428,0.3748499006154714,0.2470538427898463,0.1529811131222994,0.1436310196043484,0.1745407851243671,0.2445614289329379,0.3592357555314038,0.5190649743293776,0.6337283964250221,0.6447590462414636,0.6638876086445403,0.7255798876833338,0.8009879502107166,0.8473938344862694,0.8505517674327328,0.8511856472682853,0.8547565736521118,0.8642877405498675,0.875482550388664,0.8665279280697581,0.8471798733391667,0.8521834041511668,0.868266836476502,0.8657569147320033,0.8647249334140592,0.8629918391020701,0.8671719087673899,0.873005122791508,0.8645778835591316,0.8713392657382193,0.8698456584174065,0.8634723527124765,0.8706195726522268,0.8627717624949344,0.8473699548756543,0.8474907408490925,0.8578866149345626,0.8478938138335224,0.8438083995169069,0.8504747491281666,0.8303280108070326,0.8217309649510377,0.8265577220662124,0.8090554214190774,0.8106283329103421,0.8187889475157566,0.8022905037332515,0.8071316846621646,0.8123126710355584,0.7979224256990466,0.7916925864723793,0.7875589457158473,0.7879724219526867,0.7928174504141566,0.7917076740072659,0.794911227301526,0.7898763663911963,0.7960429822576542,0.8149567741325954,0.8070344527428368,0.8199398742238275,0.8444120321190274,0.8367123747725788,0.8278670742459161,0.8284504887230465,0.8448213579204539,0.8752879975754978,0.8828204935474331,0.8773195296172651,0.8898788517321946,0.8911055519217235,0.8849873611502532,0.902830243923744,0.9115243964377164,0.9092641876028132,0.914584121205359,0.913556412304012,0.916902735451218,0.922528177592008,0.9180732402418312,0.9029614792769304,0.908218161022822,0.9132213084653866,0.9104493854883162,0.938190690778174,0.9258298248742995,0.9168333681345308,0.93922537823331,0.9259753515020048,0.9253887614138818,0.9320543975889728,0.9352699077044028,0.9527097010926324,0.9435867426896594,0.926721242866161,0.9313008613872492,0.9273291458347748,0.9352369153818044,0.9510223610002266,0.9552587880226728,0.9634242351330788,0.9594828980206878,0.9528376808807724,0.9592082578973672,0.967856047310888,0.98766573419466,0.9929473431542768,0.9767938280259818,0.982801799059686,0.9854969374440388,0.9901358921232684,1.0,0.9933639160731076,0.9939395032534204,0.9955606844417948,0.9813338877415732,0.9361639518794028,0.9112120446525428,0.9186237300497928,0.909852007753296,0.896418550022663,0.8731086366393082,0.8588672001468989,0.8333070721853156,0.7927657496631043,0.7923074300678591,0.7950280590344976,0.7720086673146033,0.705731097117138,0.637324327926523,0.519612577591001,0.4040928701346,0.336548915885769,0.2112231102935332,0.1846662689519704,0.0,0.2437996513134027
0.9183465609921142,0.4075456863786493,0.1001925297021834,0.0,0.1377603891788497,0.2739368888100624,0.4772227219459011,0.5377210291789096,0.568221686157188,0.7172898577722681,0.7921837446286514,0.7690674776376517,0.7566955200425569,0.7713629796010295,0.7689367684600699,0.7472357943058401,0.7427003821245662,0.7260463746810959,0.7382752535134013,0.7224848398308892,0.7068794045915952,0.7066754441639418,0.6919522588813859,0.6936106960554665,0.6743254351193045,0.6653513147519193,0.6645376008349418,0.6501963522025439,0.6494449298264359,0.6141352818427367,0.6122141743562908,0.6196904557812134,0.6062204144709522,0.598932135742504,0.5889989059760239,0.5862760814982747,0.5907455499598777,0.5932500945962478,0.5823830772421538,0.5723415396933383,0.5742819248112953,0.5832949552181932,0.5984653465068093,0.6078849002957638,0.6239819173018595,0.637439156372656,0.6567127021852832,0.663165962524267,0.6761732204003807,0.6784890298277757,0.693492068026921,0.6925048705692436,0.6842435486671357,0.6728441441926455,0.6870753854325686,0.6872801983333263,0.6798315479398727,0.6950155201013979,0.697995706079561,0.6939336522677839,0.6913612344179749,0.6984991584369937,0.7116910203661752,0.6833695501481688,0.7068880533501926,0.7122466493848211,0.7302094186495415,0.7319002776356788,0.7434130055090875,0.7622090322604463,0.7594010224860368,0.7822661581979234,0.7749803412721975,0.7924304541812579,0.7902211412724167,0.7879096469655195,0.7967144798174072,0.7911911896133096,0.8014354170284437,0.8035523510425113,0.783605592321633,0.771023917112905,0.7760426228475973,0.7509569843456027,0.7536279624215548,0.7425061088257271,0.7318051225427563,0.7191953940320046,0.7279987082674502,0.7121069943593854,0.6805237827809691,0.6888456977675516,0.6887875242299002,0.6676633027173239,0.6747250174291162,0.6651151006704972,0.6912242565128635,0.7054176634359748,0.7529451965073091,0.7823954540382657,0.8082904328995719,0.8343392376554113,0.867864145005747,0.9227656771512878,0.9408996159775236,0.9187747156448398,0.9136676647952302,0.8841163550938281,0.8347071235701371,0.799271224189884,0.743856122788201,0.7104559986943071,0.6418500001824358,0.5917589603525878,0.5659361150511892,0.5500422234500308,0.5490498761087323,0.5429067279193565,0.5212577963035202,0.5295084697190549,0.5412149906450775,0.5269729571331497,0.5455881646908812,0.5362230763041593,0.5438646330974362,0.538430935494697,0.5237018457794959,0.5465431321465559,0.541147643683433,0.5808743959840108,0.6944724625732794,0.815021675040858,0.8657678341779297,0.9228517897702392,1.0,0.9343707045995228,0.8015674746451265,0.6260474476636533,0.6459174030430102,0.5022113463838489
0.5423429141429412,0.2478602111955024,0.0931580154460016,0.0,0.0382865877828151,0.1265889890567972,0.3363778648195581,0.4377493468443633,0.4502686854152991,0.5451446561440687,0.5977182794514381,0.6030927916844873,0.6129141088884458,0.6135379703355125,0.6047686829754331,0.6029032965959726,0.6117314373854382,0.6058610215118596,0.6030634132405244,0.6129735029500086,0.5943900126139317,0.5999652485849567,0.6025733266617919,0.5984177784995568,0.5977638803712991,0.5850598299023727,0.5856551887998145,0.5785935654028547,0.5700840096764734,0.5718119982498964,0.5708008370390334,0.5544626904293466,0.5631282115174945,0.5443934705535031,0.5414299022463301,0.5398896587280448,0.5254288731494713,0.5408318946022828,0.5397898699642701,0.5489805063834793,0.5641950122047714,0.5550511843513244,0.5637386273721158,0.6008769246988196,0.5987113242184855,0.6252080459689008,0.6168567023873579,0.6316630256493808,0.6553102770560865,0.6558820166464859,0.6721562861602621,0.6670978664653268,0.6783475672306829,0.6892119271462334,0.6722447865944002,0.6777422259462651,0.6965799769817074,0.6921283739177834,0.6873178616340411,0.6877346532341336,0.6933794745343111,0.6994211607506235,0.6939139847536812,0.7095767155478898,0.705009994498541,0.703722319764203,0.7229527532062209,0.7194345980931622,0.7197613137024875,0.7300765299952034,0.7240646352447735,0.7333516428600692,0.7439842769418515,0.7537172113167233,0.7599835331864429,0.7594123588024099,0.7611387307452007,0.7650528111626923,0.7788271185031679,0.7704521029556045,0.7820195321979987,0.7657124824702649,0.7785818259613045,0.782840259235235,0.7736365511023262,0.7781943892841647,0.7792458907829621,0.7733134742283976,0.7753666056629956,0.7766359889501804,0.7874532190802014,0.7888794190493011,0.8122793803835687,0.8517709881397587,0.8634875265449521,0.8867383488763328,0.903590836790132,0.9256422403081238,0.9583496444518448,0.9924062769361645,0.9948683825700044,1.0,0.9890041032226908,0.9738052827557188,0.953729222829661,0.934003345108934,0.9086884365201808,0.8788694475451806,0.8349927142792999,0.7867096005848095,0.743751066124897,0.7398297924909771,0.7379211853774723,0.7473792363753056,0.7373734653023498,0.7380665171362321,0.7437914959330945,0.7391290559568696,0.7478864020159822,0.746308465201069,0.7318518273946819,0.7485418237440105,0.7617219254186678,0.7455864228443635,0.7522854821549079,0.751271096459277,0.789272725447216,0.8539549560717048,0.902456439527781,0.9102831259113732,0.900009183725806,0.888646938436845,0.8926693120430977,0.8935059052304793,0.922650718859999,0.9417149014130896,0.9848830642441992,0.932282344381924,0.7920814342311654,0.521634958765036
0.6018961499474424,0.1312721518267567,0.0653441966482514,0.0,0.0515604915605238,0.1452931437562994,0.3649479851963506,0.4913622939377229,0.5234863691109917,0.6202953487271156,0.7332141742777742,0.7378020762962451,0.766319070388543,0.7526507915411054,0.7370055599492584,0.7587846310948037,0.7383488973540493,0.720185521235219,0.725053142398567,0.7384096157068263,0.7226767388778199,0.7081753462767437,0.7077992113605259,0.6901116458158091,0.6934592013334882,0.6829643453348248,0.6660936099279853,0.6570366312076106,0.657340640540661,0.6283061257918571,0.6204795796103444,0.6427059250644611,0.6165857276852106,0.6044718225355088,0.609096701568964,0.5978476792779039,0.593819402189951,0.6047249864958291,0.6126824339518276,0.6189558104108819,0.6134594727534459,0.6199893932686806,0.620132101327144,0.6254555162065157,0.6480106111284493,0.6492908671185936,0.6412651671916096,0.6658411798771078,0.6814808391349745,0.6493539991476844,0.6634196235269161,0.6578046848381696,0.6786948445503088,0.6691201006265768,0.6515162766800006,0.6484739642224525,0.6598072279292908,0.6463996466858714,0.6427451091855584,0.6499297020727833,0.6536806199143259,0.6582578818275782,0.6516396224991265,0.6425187813199611,0.6391036434981737,0.651938241393856,0.6525665944129657,0.6724289930355949,0.6742181725183529,0.6839198036906123,0.7036940145525069,0.6936060275096781,0.6814898896303009,0.6924963453603218,0.6987637706679141,0.6995866413233818,0.6829486675106942,0.6969294399374127,0.6972448185400204,0.6958047774942367,0.6838512970402144,0.6832119258892551,0.6861335466226017,0.672843579112488,0.670675964919698,0.6668395118306439,0.6575610015959525,0.6499660764595399,0.6404277932834601,0.6420792997377744,0.6405500034409914,0.6491000949511159,0.6489593013840093,0.6431092000784081,0.6899755846992471,0.7118237746136263,0.7313110474455214,0.7474276719195128,0.8080169135757889,0.8816504750268411,0.940966190832367,0.9985550050654778,0.9887829375671304,1.0,0.9166600749261437,0.8908794969885909,0.8383814677489744,0.741610294433871,0.672740374678802,0.5759079563043604,0.5204437339863609,0.4902580465143263,0.4670101932271262,0.4708929063365947,0.4608511587520623,0.4526378579688781,0.4488117539519877,0.4343606974157957,0.436425260599934,0.4457467804586931,0.4323876040227664,0.4190786149717938,0.4297473964364806,0.415369968099772,0.4218381777446106,0.4530775709539774,0.4388552917061479,0.4544010912221125,0.5065115419359889,0.6101405058556246,0.6550973767340172,0.6718885146003455,0.7520713051862928,0.7411619295421944,0.6801504574462303,0.6054673121716556,0.5925559106527889,0.6489442261881065,0.7021882822847911,0.3036074385454839
0.93783172536388,0.6979454181430444,0.387802425301423,0.1977110882718465,0.0034364276469635,0.0,0.1589493150835947,0.3476756496751075,0.3681892401719809,0.462795185116729,0.6080161457884388,0.6179427754103767,0.6293263971990349,0.603390810875198,0.5986674805112284,0.6102035114504238,0.6024929327782591,0.578294703200332,0.5826996865355473,0.5641866901161338,0.5399088622655085,0.5453651133554515,0.55955324674878,0.545274068666277,0.5359055921064652,0.5393942494984688,0.5152758009059911,0.519632460557,0.4986451465643384,0.5007718615730118,0.4715807435131522,0.4717466804701288,0.4819155125797422,0.4679222738113637,0.4552990490307979,0.4403152215659268,0.4290228058371165,0.4370363567974071,0.4311067906284142,0.4381292707762131,0.433881721345735,0.4530995252938473,0.4467267194859034,0.468306507979465,0.4729362111093221,0.5036631127552325,0.5230339132984082,0.5491746327634917,0.5675295166308063,0.572505621641444,0.5921417656260934,0.6007203335063526,0.5856729481058629,0.6039061130374085,0.6215218614885647,0.6116152639399312,0.6327047900558324,0.6200140182136054,0.6135104088076513,0.6255866674597526,0.6275677241701977,0.6348494110676698,0.6262099012684779,0.6421386564385194,0.6267947505060452,0.6434389463192086,0.6671390226317225,0.6420308820170947,0.6605608123771275,0.6593092484557778,0.6854542271239873,0.691255329339427,0.6934555271175356,0.6947316897026501,0.6889495635115204,0.7124094600739934,0.7153213378368903,0.7151767061079521,0.7064040803964357,0.724151312321285,0.729706715019114,0.7070104364602281,0.72167312093063,0.7012710389510728,0.6919491265056106,0.7014057136027677,0.7116398171558184,0.7033261198134413,0.6783236255540763,0.6907046807045538,0.6792831039500132,0.6865078010514243,0.701499033756626,0.6938199162242075,0.6663996240477863,0.6998583930115658,0.6874076122185636,0.6990130194964945,0.6968290662638347,0.6941281249983686,0.6902448817628937,0.6781949881001794,0.69940699425026,0.7024214982341196,0.7095525619598132,0.7550111382614412,0.8138513891865434,0.8701253351128428,0.8313616119649767,0.8148638788467675,0.8137481488050724,0.7971080072189654,0.7730700090468913,0.784806617898842,0.7768284901812776,0.7359878067029293,0.6506182216448158,0.6069820054348906,0.6224620657620348,0.6054785435809985,0.6085868373979653,0.5927834435961283,0.6014309402456525,0.6200912381497345,0.6063463615918512,0.6244860962966213,0.6195295215747983,0.6344621351161103,0.6222839218429163,0.6291786521369392,0.6602621031306309,0.7533650007798303,0.7819416205429566,0.7940975152386273,0.932306568535691,0.981398751786324,1.0,0.8958995174448761,0.8250174567447521,0.9239879486968388
0.5085832810616518,0.0901720012597547,0.0,0.0033110835342576,0.1736965832521928,0.3294771914510837,0.4427484829448123,0.5100543643992217,0.6458929019669828,0.682949682059431,0.6492584331756154,0.6798480417213274,0.6587598331102483,0.6761056842588467,0.6713014550231293,0.6740959217143767,0.6650425357585489,0.6516511202530485,0.6578852060738833,0.6344885537508992,0.6434576287693605,0.6201731108020324,0.6115912430386927,0.6251822064314907,0.6101796530566779,0.608960108267216,0.5877593027664877,0.5788740866202762,0.5739900226849447,0.5820215812714338,0.5519671121834482,0.5493282764430532,0.5474451730271302,0.5434596844759966,0.5349516682907964,0.5322135812574753,0.5405202587430384,0.5490045565784475,0.5418562348860553,0.5664128514023099,0.5963190114081407,0.6016514414572104,0.609526049379945,0.6259765784269925,0.6265121550396179,0.6506747167038773,0.6644301271104005,0.6726420168512426,0.6824181045575856,0.6749916847776906,0.6669931031518217,0.6711105455450449,0.681627830016854,0.6885094493109297,0.6843480349403507,0.6901864862191913,0.71016052356437,0.695984213093027,0.698170460114255,0.7148108888686736,0.7180288025754704,0.7146601735311432,0.7193220308065721,0.7232964509002162,0.7450281220191955,0.7451461839795577,0.7265170341704917,0.7355133076470461,0.7629453263723764,0.7566068499920253,0.772715928704731,0.7808052152135296,0.7915868159729356,0.7830964620511557,0.7917023416100639,0.7642122317241373,0.7683060779044608,0.7933614063127165,0.7901610311462555,0.7776620667322662,0.773216905680896,0.7582156640880184,0.7574132897468537,0.7263153258877943,0.7347155570596192,0.7523140301264124,0.7506502338088714,0.7385441092227389,0.7283550024534445,0.7502617718747766,0.7131077692307508,0.722535247794735,0.7268038861420865,0.7353719413333684,0.7404210328292066,0.7448961539013654,0.7475369993487881,0.7458074949699823,0.7778626281971412,0.8128785087688338,0.8354684596150799,0.8736308910528618,0.8857965026497756,0.9149117644236332,0.956935182507015,0.9968822893021644,0.9823235242869603,0.9708063168248404,0.9532190962139704,0.915375456337925,0.8871568855505156,0.8475480408409901,0.8056664839636243,0.7414112933638505,0.6851409305070433,0.6629198394169533,0.6630148349530085,0.6719519243817196,0.6612158505450516,0.6699156470285085,0.6626457642331313,0.6669807784291656,0.665024595911285,0.6764981085040347,0.6801701811028373,0.6836332248191996,0.6946391084704867,0.7025151335935694,0.7317238567372334,0.8117266071965752,0.9621368023594308,1.0,0.9680860744671796,0.991647327664648,0.9112765105458462,0.810385345857176,0.7416310144587078,0.7865238135610493,0.8798981632118448,0.6058369378917252
0.5179930057978477,0.1284396491197013,0.0,0.0205176702758187,0.1331168338820691,0.2840814898159532,0.4235870593527684,0.459066416609372,0.5672161547937613,0.6515680446588652,0.6524776729754588,0.65903645080134,0.6572048674612164,0.6550561398845637,0.6637691643195592,0.6697400545473052,0.6493904397861843,0.6507166248877645,0.653212612199717,0.642471797288541,0.6435770323511625,0.6322250203904819,0.6409450526299622,0.6383696218395404,0.6258689254521896,0.6120351061229239,0.6170763810662823,0.6066067065225852,0.5918788381030877,0.595492639380952,0.5751523981888201,0.5817643878182457,0.5868120506511807,0.582238728482607,0.5623125888219287,0.5647761111413385,0.574539343021665,0.568921098141674,0.5689301039921087,0.5954272391716973,0.6073618556236727,0.6148701299419747,0.6365194036294928,0.6330087327624605,0.6646809257291826,0.6739894345673143,0.6864864521420484,0.6917260900935189,0.6940334582882199,0.7154417705628866,0.7016765182155406,0.7305595563478896,0.7245034398606391,0.7136205917053627,0.7264502510639106,0.7239434547789484,0.7117730296923946,0.7218067361418266,0.741888206790857,0.7389581911813671,0.7419775721620002,0.7354205190337632,0.7423475523481531,0.7492865674299506,0.7451147548729542,0.7454111441631155,0.7537828070033398,0.7561781207850667,0.7709967782648005,0.7899761093580662,0.7892451808693673,0.7929476690288298,0.7999447885234323,0.8015644244208855,0.7954361083479791,0.815347838647962,0.8054446589433187,0.8151527720902528,0.8108539095185867,0.812987419079139,0.796400214331105,0.7959945605639618,0.7859009856289081,0.7916492548134684,0.7867357783384744,0.7777341843273535,0.7667966432437541,0.7733634457949008,0.7788488629231138,0.7800800822674268,0.7676108241893986,0.7749821981915797,0.7688732784588779,0.7626978634966246,0.7654412586856424,0.7860865289268892,0.8086082994923791,0.842159535898833,0.863194508081087,0.873120616501959,0.9106265585734654,0.9551220981799428,0.9893593965302468,0.9954332446990604,0.9888645872844096,0.9704907487218364,0.9516951565023184,0.9294594595825892,0.8927133607184947,0.8427298917827073,0.7999950667139082,0.7503825786143219,0.6975106669295149,0.6691412183732756,0.6667953204332023,0.6637123973609652,0.6707326701079048,0.6652978940075022,0.666899303430417,0.6796242772215212,0.6683743803779651,0.6765718959412462,0.6744207342630126,0.6721118131896024,0.6686170372011424,0.6737199229001578,0.6810777921943699,0.6815155237106225,0.7253632317371441,0.8208460771133794,0.8959527008504776,0.8880649751526389,0.9145459827821808,0.9658914844973762,0.95288749205012,0.9011228725366436,0.9007281933785668,0.9285634466149456,1.0,0.7098522102683681
0.2593400169627669,0.1331143782652096,0.0205842824229048,0.0,0.0548144013928521,0.1413742359697137,0.2488966041912882,0.3785834934182193,0.425258618722445,0.4821974074884518,0.5341123672613118,0.5936234038740323,0.6209477102400286,0.62078033390421,0.624181354886415,0.6240030315913112,0.6198485763090613,0.6221311798312119,0.6351492006907423,0.630098122566703,0.6269420817025702,0.6153830456428302,0.6191387920094241,0.6188627713994632,0.6245495406233524,0.6314068432057984,0.6140790863269244,0.6290999565950426,0.6281406912124164,0.6244264915597888,0.6147409272671807,0.6134344579613875,0.6018990940842397,0.6173966139845031,0.6015631468275846,0.6184992380776798,0.6139948255409832,0.6105758874852023,0.5980352360718661,0.5906299235685106,0.5905854244257615,0.582946432714735,0.5910033777316793,0.5903638816573291,0.5976842152623822,0.5833032341585561,0.5769152639496006,0.5923250397084654,0.6070745570969691,0.6045462281173763,0.6068175494476941,0.61457843647778,0.6097788882691529,0.6244565127405299,0.6326523903773827,0.6449570959345532,0.651266567273336,0.6521953741413898,0.676567572736146,0.6894694517809415,0.6804405093513118,0.6750821843861713,0.7015807082483559,0.6916436017881814,0.6994584377751469,0.6942528208500077,0.6871522966739297,0.6966254606873726,0.6927860863926266,0.7083220441929409,0.6921957047793798,0.6999499567575538,0.6972100415863632,0.7109992096169471,0.7063389513827211,0.7054308693735406,0.7079981602029378,0.7084018873966804,0.7138191296522428,0.7161989284912729,0.7278403160429516,0.7107683926485918,0.707358909171668,0.7083891315429884,0.7139379789496761,0.697963794102075,0.6889812473465364,0.6969216054603221,0.6879595308629802,0.7002641513357476,0.7021616203078908,0.7025282575086942,0.6976443736398513,0.6776014695233539,0.6832497531658928,0.7070738015474708,0.7181418818835514,0.7104319178686384,0.7506326323155632,0.7727991068588119,0.7782072825203946,0.7774221764021914,0.7922780986433512,0.8357691937182457,0.8491100265043019,0.8480272423922078,0.831924690705858,0.7985427151865806,0.7821964239127536,0.8052766215610989,0.7835215607365565,0.7835036606798614,0.7731330274049885,0.7909864306202974,0.7829038871098779,0.7899090646829838,0.7929484922677932,0.7888405543303306,0.7890340685947392,0.7771016277207843,0.776238303510938,0.7791889744499535,0.7885019813690002,0.8025095525535471,0.8294555753656625,0.8941843057836786,0.9519051563479506,0.9782481893996506,0.9659062032604784,1.0,0.983417730537934,0.9733808170100464,0.9622843133783124,0.9142282682140138,0.8706042696000047,0.9053938865869492,0.969703707350358,0.9445650950732268,0.7898614820814713,0.6274764100514834
0.8911444359549059,0.9232660618148938,1.0000000000000002,0.9713055506962712,0.9023500242750384,0.8128276602607512,0.7248640241635479,0.6655692455134399,0.6212149198346362,0.5708008497056896,0.5417147094307115,0.5405701411186872,0.5746029210473245,0.6378060889204161,0.658869733347339,0.6709466417470628,0.7071003617772497,0.7131960908189979,0.7169400254780701,0.7573326789084173,0.8035585933315041,0.8253173000241789,0.8256061187885557,0.8205740091879477,0.8159269828320326,0.8153315631919311,0.8243486012334267,0.8194673753715075,0.8167769772085433,0.8235557955991462,0.8136650199347717,0.8156021271409651,0.8171413323830634,0.8112943283657885,0.8165904060064743,0.8179619684650388,0.8119795280003342,0.8003610057290713,0.8014545034391412,0.8082249144515505,0.8025879800895728,0.7956702745123782,0.7904932760726727,0.7934178585475841,0.8040300193373077,0.8013541027988703,0.7955651164440452,0.800805911352537,0.8018608651165151,0.7980111857296878,0.7855137429738883,0.7778930927918281,0.7752429926444221,0.7746580839152912,0.7893497291389229,0.7787269628974298,0.7641215371942244,0.7723798920769511,0.7666029731798222,0.7636761909431063,0.7693056329467662,0.7574808378462217,0.744804978876378,0.7578458159770778,0.7612569357915698,0.7457505950245947,0.7505331408887843,0.7539008242708382,0.7548190332102582,0.7506183508485359,0.73352065883592,0.7416347773798849,0.7489227801896375,0.7387755621016057,0.7368653157934492,0.7364457379876715,0.7443007703420653,0.752654783293412,0.7389805976281808,0.7415251146113042,0.7475587458798362,0.7457542853233886,0.7584336824826334,0.7549629411885664,0.758020125575167,0.7685147721517788,0.767640372743307,0.7770533527155479,0.7816419461047892,0.7834286456527457,0.7969609184881725,0.7931403559791975,0.7793541735694113,0.7850200745569,0.7946403200368116,0.798438469623518,0.8002250307367333,0.8142609190317822,0.8161999238068691,0.8127074769582971,0.8283454907736116,0.8245636933686687,0.8302607168495306,0.8322101177360465,0.8243339339037589,0.840479650380022,0.8438454615166108,0.8443369132895091,0.839049469249643,0.8420738327849462,0.8517688279604955,0.8407847723675343,0.8425248936897158,0.8408937255736543,0.8371931893618778,0.8297499973241579,0.7997832432714048,0.7843081114351048,0.7893328434769366,0.7849886937645584,0.7561625406867303,0.7265770080558553,0.70920338133271,0.6813972204937577,0.6396590227391894,0.6084516553638079,0.6011201632800635,0.5588666894712581,0.4967477796333661,0.4574431684025202,0.3605666377067941,0.2205826765533383,0.1273160849723248,0.0628776335141461,0.0146416685937795,0.0,0.0990019260324269,0.3311574093160437,0.4453576973075761,0.6687645489426406
0.9463072503592084,0.6944602018407684,0.4536447147616711,0.2762943512317036,0.2231912396394418,0.207580049927908,0.265104685584497,0.3281973625743591,0.423506154888645,0.5346230319465527,0.6154476458612581,0.6440922021057424,0.6639467071057916,0.7218105737137457,0.8041675461589535,0.8623874173395444,0.8653515823602742,0.8584659023690978,0.8479880977787404,0.8599669954702462,0.8660934761667741,0.8543265222113449,0.8634416713484857,0.8554495309643302,0.8575902179711435,0.8550192902901883,0.8496065707709993,0.8553001723165252,0.8411805479889092,0.8362120874861361,0.8406261737571961,0.8364894863058672,0.832912802532137,0.8155662959756158,0.8191447714107079,0.8244610645079853,0.8073474509852344,0.8257910383059286,0.8416169186895268,0.8284691173479375,0.8108236724060457,0.801112536189891,0.8056607880706974,0.7953611221748692,0.7803581681236621,0.7850041999733525,0.7815924031722794,0.78228787522061,0.7726761766271915,0.7598711864310623,0.7623127766020623,0.7518177874971989,0.7521356666006457,0.7590006621846906,0.7479638321346376,0.7411916963358002,0.7367467722146404,0.7366108958707275,0.7502248232575082,0.7527719733604359,0.759026713232898,0.7806252848094982,0.7891468014735759,0.7930010254810538,0.803853334851205,0.8219819078494541,0.8358833332693704,0.8275516365564661,0.8309692775337263,0.8520898926771902,0.8652657536466045,0.8705459882553782,0.8817893620283926,0.9025961027131302,0.9140335891244528,0.9109963852241292,0.9015786226057856,0.8901975849990014,0.9083306100358732,0.9167314390140164,0.8985527318267972,0.9049624910792368,0.9175542704446707,0.9190820006904676,0.8994005610006673,0.904392406960006,0.9230031131106896,0.9174912994921944,0.9190483908753504,0.9229229910157464,0.9281017621104212,0.9246699109016608,0.9256485167546826,0.929818463614716,0.942923244226095,0.955541014152915,0.9421297071887212,0.941039930729658,0.940230827721686,0.933430461263322,0.9345543877473892,0.9480895612928396,0.9612391522100384,0.9553341054232736,0.9509136033776509,0.9567032162803492,0.9709688245082922,0.9717178161304086,0.964511303610304,0.985564346631368,0.9965671226010302,0.9876759540774042,1.0,0.9973258359153558,0.9903397123430326,0.9795177085389538,0.9370641924525462,0.902332526174942,0.9090710083578604,0.9251946048758886,0.903862135683704,0.8843992828515608,0.840817168195579,0.7920971181408571,0.7841863873032072,0.7658536941012084,0.7688992793892117,0.7769940959439458,0.7101051077407947,0.6066973094293866,0.5065425465969615,0.370230217847667,0.2609598782988469,0.1576963389704826,0.0128601865063163,0.0,0.0850001067905259,0.3223794689540753,0.5138475191476248,0.8241732932412777
0.8712358874655628,0.5166965031023073,0.1852143391756346,0.0891637146335552,0.0,0.1001266180624347,0.367717214194189,0.5496518980333394,0.5734939343564698,0.690232803894653,0.8039212394730488,0.8048096640778281,0.7986746737284035,0.7950069937647328,0.8113630250888906,0.8042571348239826,0.8022031696126459,0.7899662109167407,0.8085602776079753,0.7904264376491295,0.7827017702849638,0.7829583597999031,0.7816344803291411,0.7848082847126258,0.7806451750839746,0.7710181597260458,0.7463258301230524,0.7507668925683711,0.7429292996403458,0.7368017456019899,0.7146619685487875,0.7109896907011091,0.7315276308689977,0.7121814576380471,0.7192687096138153,0.7210755784080608,0.7148766897319518,0.7060729480352513,0.6997032724903006,0.7174806952092577,0.7036068652845274,0.7122529623975083,0.7422229328507395,0.7418709939498743,0.7467161138439146,0.7648710444959459,0.7837148542535907,0.7868556197752232,0.8005443388897996,0.7944862803355934,0.8075051980994493,0.8114976373389869,0.8036189102079998,0.8253558191318107,0.8389095336435219,0.8301573939990411,0.8315268476960884,0.8327800668854187,0.842166693066184,0.8414006871231124,0.8399275480764331,0.8373201984048255,0.852087107525579,0.8558159500749494,0.8594339499019157,0.8819907535019975,0.858465186469868,0.8777476667462867,0.90183072874699,0.8839616793955254,0.8691780584990315,0.8818777681656458,0.8858579663053266,0.8760398455693372,0.8834098980641453,0.8901040999255067,0.8871384340879152,0.8830131435878561,0.8790756107465117,0.8849249744108597,0.8760636764021497,0.8757258054937204,0.8590011847980774,0.8623843768192774,0.8396733647874579,0.8321999794474585,0.8326890563693683,0.839041607861646,0.8288458245963959,0.8243505101850411,0.8374747838630517,0.8157805310418093,0.8064563901047099,0.8090133331739401,0.817262734050496,0.7964942789678762,0.8136859297316116,0.8199425601677186,0.83160785934705,0.8681722974270012,0.9030960250449808,0.9388391155173144,0.9416925163537156,0.94516670816257,0.9844567151751094,1.0,0.963386835077962,0.8894140157757998,0.8502188799692494,0.8168496632164911,0.8311908910400345,0.8233575956009285,0.7806607343234571,0.7079581770340139,0.6633787949114605,0.6384923293117941,0.6191242027173341,0.6295234913940255,0.646978041502187,0.6221210590674066,0.6171117793880079,0.6381393758111913,0.6013229031867244,0.5912150375942155,0.5973868079504465,0.6075065667362556,0.6090000054408294,0.588021914434758,0.602545051408558,0.6092245660957705,0.6770787022104557,0.7823437989602805,0.7730032077137781,0.7978367139658658,0.7833639759313034,0.7536440457670309,0.7579897500904442,0.7677658774322136,0.9147724495709828,0.8441521896541326
0.79415801146756,0.3587793360770232,0.0839823877883124,0.0091363383230501,0.0,0.1374801898343778,0.3591980704863192,0.4659882933147721,0.5016148677127035,0.6545721714830744,0.7017906762584891,0.6992100370455382,0.6968320309030706,0.7031289146756996,0.7071125663271108,0.6981893514471548,0.696232970496221,0.6959496819492116,0.7004097502075537,0.6904429712704764,0.6873474314791397,0.6851767473089868,0.6847642219192838,0.6797274792658138,0.6757982759424657,0.6705340429233893,0.655109070711482,0.6494419659241205,0.6391169498013403,0.633634142131978,0.620513855029408,0.6008336139222569,0.6094372464452076,0.606548333153589,0.5911012159584846,0.5731959650670574,0.589321149323224,0.574971354656906,0.575276747937689,0.5893387093042642,0.5774080812761289,0.5837626415365907,0.5965970360480546,0.6240488183697496,0.6286306879358141,0.6437908439020181,0.6422509867621986,0.6596973864255262,0.6862731509652756,0.6913637031978183,0.692286583009124,0.7037497355121459,0.7127871371641227,0.6985809257638853,0.7302252156491569,0.7199956873834766,0.7338260304784547,0.7266008034252947,0.7238496445656095,0.7387285054233057,0.7406430238536961,0.7356742637245504,0.7465905329580611,0.7396949455632008,0.7520753406181566,0.7785128015865512,0.7719948021457685,0.7718705453112019,0.7901564184640206,0.7876029731968325,0.8044214880938851,0.7996096679552047,0.7979745008045751,0.8046222375537512,0.8121338486153973,0.8210820598849956,0.813633175521792,0.8068466391037159,0.7954125906780121,0.8051726889814568,0.7904849146018778,0.802747224400536,0.7799040775115286,0.7852969838813696,0.7682810081207581,0.7600037750215105,0.7832766157074125,0.7660835705644234,0.7673929077114885,0.7593291634826591,0.7583594129056844,0.7437335539958575,0.7435083881124608,0.7497286073417102,0.7376744151435055,0.7418368482754456,0.7321129073707724,0.7472652599409954,0.7692479053568192,0.8122668355187185,0.8268438600214286,0.8688602956083028,0.8788608108945268,0.9068124442543536,0.9537055343128912,1.0,0.9899601401222836,0.9656146210991816,0.9242687752289198,0.8621979863837449,0.8484384245520735,0.8136665357416363,0.7696485212853227,0.7089711369044047,0.6484214605121097,0.655534351112289,0.6540514812279263,0.6655019117930141,0.6609384243570666,0.6649851793978427,0.6598186838354275,0.6627357108813396,0.6438851164761374,0.6529376579955628,0.6615801873741709,0.659902173308183,0.6563565235898985,0.6577946323712042,0.6749460271611535,0.7241000693023311,0.8579719856836233,0.9717896158889872,0.9543528480063048,0.9704993254555436,0.9277723315384953,0.8465226034756126,0.7649424775676157,0.7474328379476932,0.8575426990611292,0.5298962343341405
0.507932727180124,0.2572888954053641,0.1246648074233912,0.0354130320152669,0.0,0.0690413592760688,0.2288982825490144,0.4063477498765452,0.4593089875754979,0.5214371881120232,0.6206937617758284,0.6465646290475499,0.6343866483730292,0.6281519023899297,0.6446500165896559,0.6530996143104714,0.6619552081304099,0.6513280153454821,0.6522688456343793,0.6463183225711426,0.6358438387063149,0.6562385279313352,0.6296535955401369,0.6078006304829464,0.6242837254861594,0.6351390742504972,0.6267118020319353,0.6212206638962062,0.6202862412620791,0.6266746015492273,0.6229561620569628,0.6186312192612957,0.6074306502035927,0.5984515219564682,0.6020576960110094,0.6060620264642983,0.6145370547385423,0.5919666830497309,0.5938649455394334,0.6028188002945941,0.6278331098134389,0.6423848854185882,0.6318507433293751,0.6371354381007254,0.6478784381183644,0.6442508876323109,0.640792205680521,0.6464816370185743,0.6514799698306706,0.654984679510449,0.6694390606557756,0.6714329784489919,0.6677190885265839,0.6610945769254523,0.658485918169084,0.666250715553511,0.6586154051389164,0.655864602250605,0.6753178947167231,0.6554751914015953,0.6654204052474353,0.6765082744816959,0.6672921449208185,0.6640956248344583,0.6769338111431448,0.6690080665583173,0.6721589610958099,0.6684837940229176,0.6905301555142761,0.6851698202268327,0.6846878491035853,0.70957165829277,0.7181097361027635,0.7181852416490082,0.7143161075452783,0.738251689942734,0.7500679185342473,0.742503547341163,0.7482450498916045,0.7572358212273782,0.7492049445940239,0.7675274660926652,0.7514371426566605,0.743342676608163,0.7493537775524074,0.7521163497184195,0.7493655121723333,0.7311332777454065,0.732168856402491,0.7358384507720205,0.7334051941765443,0.7355268612415788,0.7261363604102034,0.7325985972971496,0.7570531170425481,0.7801290485505316,0.8043458925983481,0.840653836763835,0.8389429465540653,0.8791239358461316,0.939518521594268,0.9883339664763752,1.0,0.9659987370855768,0.9553454428384772,0.93325736340807,0.896520556427628,0.8598608529123257,0.8124563083596243,0.78049071965163,0.736872074693369,0.661800884536537,0.6270208860876043,0.6040125574085329,0.6127823799996651,0.6082815078850082,0.6005117622266897,0.6107854436911144,0.6132052451889415,0.618625868560063,0.6203595485063096,0.6071582143402174,0.6137861895469079,0.6037137217530796,0.6067273812757508,0.6227268979285556,0.6339420390757569,0.6383456615361731,0.693373981080423,0.811967779563396,0.8828711021968266,0.8269326468342798,0.7495054293638322,0.613572966662556,0.5157466917532693,0.440003412410099,0.439351694207471,0.4908692354552263,0.5826128040372305,0.4574646168397597
0.7002870300212954,0.2475198907022904,0.0131097986469294,0.0,0.0637956419305331,0.2263339520709152,0.3643791358903944,0.4093833153205924,0.5123865238376074,0.6309603557335832,0.6341052325090005,0.6367314799561313,0.6337457710194533,0.6331868211944296,0.6382403109424135,0.6294914277310412,0.6302715484204443,0.6167799865223051,0.6221492177377972,0.6290274284928852,0.6219835072983851,0.6222034365698069,0.6087969300441336,0.5950509447951648,0.5816289011566126,0.5893872856033622,0.5705007145805311,0.573972679169174,0.5706585000915948,0.5574949095079671,0.5553329505870239,0.5428825503883066,0.5347547388702488,0.5401546971658607,0.5341660001965595,0.5333462298459087,0.5508167328263183,0.5427550775718037,0.5526285625332437,0.5565647186974907,0.5569768618831822,0.5635542255950947,0.5878710160053685,0.6143643939286729,0.6142801391803813,0.6324208756185778,0.6351020518261854,0.6475582424766932,0.6444083445992778,0.6512368384696162,0.6592939922459861,0.6657805256144614,0.6643686388005148,0.654959252842509,0.6653193149565586,0.671445097549097,0.6694240579902097,0.6711725638448912,0.6771522812980525,0.6739547702071794,0.6792295865659641,0.6862871968701224,0.7078577384665747,0.7034120428731118,0.6964836007696937,0.6880622510314877,0.6842725556119101,0.7130806978346633,0.7293490745636774,0.751104687005596,0.7570874996999614,0.7443718645966257,0.7469448220608863,0.7444268136854505,0.741445403412551,0.7467295776918583,0.7449144579199674,0.7643545041872878,0.766132732698406,0.7682031515038168,0.7296230819323908,0.7255775561275466,0.7449380450587219,0.7210749317768906,0.735255078940058,0.7479846749274297,0.7552376106341029,0.7419843548341319,0.7346757851296726,0.7264228323002753,0.7255543896292272,0.715841572113134,0.7060644841787203,0.7104605426371075,0.72501053438458,0.7386955627359798,0.7237303785505903,0.7214717614615331,0.7676918044153328,0.7975546983073757,0.8120545806766071,0.8230134227301111,0.8689717866765034,0.8987302522802738,0.9461880946090706,0.9631203420228942,0.952666973728972,0.9585552517857476,0.9214437880907308,0.8853095550038581,0.8288207345398416,0.7948623117976116,0.7463915829379795,0.6925604094004223,0.6550684883160082,0.6476935135602983,0.6580956151674809,0.6635706979683613,0.6648729654157721,0.660188124788849,0.6455158611545673,0.6521348338677473,0.6576909143464267,0.6569673866837278,0.6613579671213987,0.6492483053780755,0.6806508966638912,0.6708011044547932,0.687916115227645,0.7628548537957833,0.9150267540608416,0.9616702271247248,0.9643440929455862,1.0,0.90302048761296,0.7457071477834164,0.6827923728975894,0.7602714710163493,0.773647961954089,0.3974661183120809
0.4960678343982849,0.2027481305252813,0.0572892161828419,0.0,0.0524778281879657,0.1356615018647557,0.3401787542554589,0.4069759483440107,0.4312046568025939,0.5381580570259833,0.6022488032825799,0.579454653143551,0.5841161006565188,0.5959221990393653,0.6023744982220949,0.5932347127646725,0.5867385424770758,0.6063454863068954,0.6191127914634118,0.6016577451227842,0.5932846799361613,0.6024784649159676,0.6137541275678394,0.5990494173097087,0.5991825285327793,0.5982612150675003,0.59532861578933,0.5939289863260596,0.6091568578730981,0.6062996465668601,0.6150607557754074,0.6238766532073642,0.6182552708180324,0.6179181993275996,0.6164073505501572,0.6199590162267131,0.6184434897975366,0.6320796582424408,0.6436607025022382,0.6376045634802464,0.6429164305954086,0.6418265704740295,0.6612202470526469,0.6702592656666613,0.6722667789635605,0.6802264468194251,0.6897904133016267,0.6759932653661133,0.6919367228596404,0.7041733491283443,0.7015684582436504,0.7070474972435601,0.6870107175896524,0.7058429294426036,0.6935544250390567,0.703390940565408,0.6955251738014157,0.6830968105725466,0.6954369312497265,0.706655336701066,0.7014905467401763,0.6997182466901873,0.7003198494397799,0.6920516378460089,0.6952844469732062,0.712061925874168,0.7065439786628004,0.7136229460124952,0.7288098019888141,0.7267805350395005,0.737559791448121,0.7333333577529303,0.7474397634657568,0.763033327310006,0.7554849784174147,0.7587444225705472,0.7544255191355624,0.7536637165559397,0.7530605473151799,0.757540266265778,0.7536950448205856,0.7624832426360926,0.7686157687552285,0.7620868206141447,0.7442791126889011,0.7551661156332654,0.7528794578188586,0.7489671905517109,0.7387481706149855,0.7414398887538762,0.7278808898723509,0.7319959592944855,0.7297478839237215,0.7346466556278658,0.7503767380083114,0.7447399463337272,0.7843583752715232,0.8120960722642171,0.8370908104905279,0.8684014618526746,0.9054121771042803,0.9411825275040387,0.9885507420702464,1.0,0.9767183406640704,0.9607160021187688,0.9421019253298708,0.9171349553027074,0.8759232692411916,0.8354521983817508,0.7894273957296328,0.7522893504646471,0.6849333772865296,0.6525297685148462,0.6234305180816491,0.6194891390179547,0.6334197937740097,0.6049492064849368,0.6287136069615678,0.6194111558143873,0.6178083719304547,0.6237174712069181,0.6286450523202595,0.6205823768372039,0.6255925642514277,0.6252391014962049,0.6173387378785342,0.6466920748936154,0.6567586730575973,0.6728769802688981,0.7697248024167546,0.882751222357997,0.8548842952994525,0.7834199021034984,0.6589893859390474,0.5410770488734178,0.4965973395867453,0.4670304500787867,0.6085400765255095,0.6487458383356488
0.668654080079708,0.2958431007878213,0.0715127082412596,0.0,0.071792731384026,0.2549614422428688,0.4358382255199496,0.49826502661473,0.5670813620277022,0.6740592993866051,0.6719811308121096,0.6610301066996138,0.6789433600620827,0.6728728492500112,0.6780885553835636,0.6826960735555929,0.6565711674842857,0.6631169197762763,0.6629400122417066,0.6604906031562354,0.6508963877148055,0.6502564424416671,0.646789997072674,0.639408293688723,0.6383970411688743,0.6463538953596434,0.6313374607951658,0.6240479906456076,0.6254748080683978,0.6074293897739291,0.5994732370498825,0.5965559377964226,0.5919851465237186,0.599401623674493,0.5883078844518507,0.5796238272733257,0.5904481276407237,0.5907502002702323,0.5986882898554224,0.5979591441162788,0.6009557402527158,0.6100442352626847,0.6240431263520567,0.6358906901885316,0.6412522331815975,0.6629149804091319,0.6757288020501099,0.6753441061320041,0.7061942781641225,0.6914645711626201,0.7052999036439802,0.7169367849905579,0.7265126896294047,0.7151995381412595,0.709872570190829,0.7152476206448982,0.7210209274217594,0.7171604090224282,0.722141429305331,0.7059748673816357,0.7200141076377106,0.7137781866717438,0.7219584250906431,0.7296433890001802,0.7445428862442984,0.7506496390093563,0.744438349906461,0.7492320355670026,0.7589263323652252,0.7619117198642666,0.7736413023368882,0.7731630384696957,0.7905880279858825,0.7939259136355654,0.8006110739112944,0.794800466159488,0.7836188611855343,0.7906187026955794,0.7965347336289865,0.7940062842223629,0.7774640764876941,0.7944354824943938,0.7891348232535952,0.7857136217466905,0.7765615513098215,0.7618173065958738,0.7577472854461331,0.7615644953196821,0.7605070097658553,0.7655004043369864,0.7582111225305016,0.745738301214586,0.7556545477192462,0.7401890365318975,0.7466711110688616,0.763519603199406,0.766999638930015,0.7861937794257319,0.8296808232982933,0.8652942457883931,0.8853244871607194,0.90495119979061,0.9485840019228196,0.9941692543694962,1.0,0.9865273453899496,0.981614394073416,0.960733524196546,0.9241084636023524,0.8891217801250038,0.8359936426649324,0.780482275722959,0.7198490998261445,0.6855428746619409,0.6766446862390515,0.6634191510885318,0.6787892301752714,0.6845270841121331,0.6543806248306674,0.6633799445859085,0.6736490021576553,0.6738939504812841,0.6769472363998171,0.6760301213073245,0.6921721013455986,0.6951435846767694,0.6907171929241555,0.6918013078157437,0.7145494638666112,0.7506342675451324,0.8619163201809114,0.9208421646337652,0.9011469366495912,0.8847672734363703,0.7987586308028037,0.7148774385626748,0.6678135242220538,0.6996993716800919,0.8229315522267705,0.5815955330717757
0.7610136543143771,0.3804701768498578,0.1111558573169347,0.0,0.0080397116757041,0.0692628700114087,0.209751394880331,0.4189656506797123,0.4723309445136199,0.530602953611422,0.6543942573637226,0.6673162887422341,0.64006488678075,0.6631766245426939,0.6523901945383406,0.6496147829030046,0.6554775392710064,0.6585696833639093,0.6597974983291247,0.6546804498764895,0.6549076654834204,0.6444517267355996,0.6400038875925587,0.6610970584289115,0.6394992806735332,0.622868415103297,0.6340419159634711,0.6264218753478764,0.6191626190822467,0.59297971959362,0.6004687818231564,0.5982881269097058,0.5873869363376494,0.5787362786045548,0.5752663379882907,0.5652486379540654,0.5828163060455656,0.584466904613451,0.5979388496311699,0.5765923459967504,0.5799226225400648,0.5936944840571439,0.600478383708392,0.617779150088527,0.6220395879018967,0.6383934213604253,0.6718912674160957,0.6580642931665068,0.6688190890099033,0.6940302777126935,0.6962942278728961,0.6922923252501588,0.6873094849805421,0.6951743674983589,0.7075949203242113,0.6978071585409077,0.7008336629563903,0.7019600235920281,0.7014148381059327,0.7058416458289564,0.7263626389316284,0.7229210450807086,0.7146713135276147,0.7220026535572555,0.7445673148883354,0.7308767386782213,0.7324245378930535,0.737942121677691,0.745069165300426,0.7534779814830775,0.75198728880026,0.7702290478453807,0.7664830039747974,0.7659985423426761,0.7821354599093362,0.7703001347096393,0.7892933694472664,0.7830808452627552,0.7687832836937913,0.7782316068079265,0.7621815540220845,0.7843728558248922,0.7802023051392096,0.7612408382736968,0.7742227516797245,0.7650917876458581,0.7740140499253408,0.7600829154754175,0.7426436765548942,0.7564722189436175,0.7490173313870263,0.7422096343145427,0.753845001994828,0.760016294089098,0.7713921782580815,0.7876374809811701,0.819670183470538,0.8442349674994065,0.863098320440703,0.8759736763398487,0.9291583572566856,0.963824596722798,1.0,0.9880109987474982,0.9838054742866876,0.9557224126626016,0.9210300797410615,0.9084945558908918,0.8453154485930998,0.8062489679911787,0.7632216654229418,0.6923239913752031,0.6465073530138961,0.6190961416925581,0.6315748406744529,0.6104753782929951,0.6197057901978897,0.628691167308372,0.6273532882809544,0.6137840031231128,0.6160994863545232,0.6138109209988118,0.6119047015105704,0.6207516076630449,0.6123909528151048,0.6214062938838633,0.6238560737533653,0.6104435613670837,0.6432850233075953,0.7171078710251608,0.7611245269730453,0.7389147334710183,0.7623805193888852,0.7783996587881151,0.8166496595041423,0.8340565007650889,0.8400789842091553,0.8553751007007208,0.905411967794188,0.6227077718288883
0.4485353175651878,0.2460594674140208,0.1476209690901171,0.1352802829783813,0.1847639610194806,0.2490655493606834,0.3825093125371276,0.5441257665410034,0.6018380825402467,0.605518710493568,0.6954552125704252,0.7523807182275654,0.7460313361091939,0.7489312505982788,0.7371869838372005,0.7463105435828571,0.7518184970139883,0.7485392636168232,0.7465663149284104,0.7551550019305223,0.7579817628622478,0.7474749562025643,0.7506659014806167,0.7560024915874574,0.7517969960798719,0.739765504246462,0.7364376379934111,0.7288480909356141,0.7261559262911484,0.7236621839771691,0.7276958323161642,0.7217299247439826,0.7243009914594428,0.719565006753393,0.7113339437111921,0.6984860106982538,0.703646080993997,0.7046520008042698,0.687946286137751,0.6903255359775612,0.6869058578411953,0.6876759012653509,0.686368334488288,0.6896267794354265,0.6911151914926945,0.707851118489182,0.7137570511696034,0.7030901070695589,0.7088718009551391,0.7173692535359704,0.7269931940273352,0.7389698639748974,0.7478328095350855,0.7555728558034981,0.7683715488193128,0.7790072947634985,0.776766934435983,0.7680158673815936,0.7839156835812173,0.793223054328973,0.7815060180539328,0.7938547413672679,0.7921153220262286,0.779260132264821,0.7763546335053476,0.7816333070281546,0.7990457806294649,0.7902460616658736,0.7905513086101295,0.7913292335116682,0.7970638217379098,0.7820159452437017,0.8068237856831737,0.7904775118201551,0.7974240429945402,0.7974058910470943,0.8120194105655217,0.8118287253469101,0.8198166136669985,0.8105883618133078,0.8221020204301013,0.8253631676504011,0.821731497558565,0.8249599445255382,0.8288279856568838,0.8378470705755888,0.8350264744907705,0.841339182457026,0.8307711454019907,0.8326456252716588,0.8547198040439747,0.8431275156903599,0.8365497761006383,0.8297877579697593,0.8234754622146641,0.8431388707337863,0.836627403706328,0.8170511549469691,0.8187061864192913,0.8312926383208901,0.827631611466249,0.8134580293466867,0.8120996781546864,0.826545618264069,0.8142368812653235,0.8161629076825627,0.805012355800521,0.8038309677756217,0.8196965979296924,0.8187661420745306,0.8281779872828278,0.8415856700744317,0.8443447605900483,0.8653238683544119,0.8775435622464044,0.8980233064189981,0.912056624989065,0.9331727480789817,0.948668406808446,0.9768154306209688,1.0,0.9744844772727378,0.952702873157588,0.9419723571195968,0.9323252236131042,0.9199227791093216,0.8894319446244688,0.8283196926553591,0.7791475583129939,0.7586575803113295,0.7550024050231137,0.699624550747087,0.6136566381798222,0.5050655530247826,0.3948267865804199,0.2854628787819802,0.1105426851526578,0.0,0.0922458775448886,0.2766621338706125
0.92688629885614,0.7032502768269728,0.5010934218794982,0.3688619257633578,0.3462512083006483,0.2986428715635841,0.2909920728115809,0.2994414208724433,0.3321157249119538,0.4141588840129782,0.5125129671516566,0.6355361513945696,0.6963120543175686,0.7023442995272613,0.7266088119868565,0.7843062275314484,0.8698308730180423,0.9152229628841329,0.9185978813825696,0.9182050792676976,0.9179750440097456,0.9294401167479504,0.930152881591606,0.9145489648840336,0.9038580766852228,0.9135194165865486,0.9213904557767952,0.9069562034439846,0.9204865530887064,0.9227741595528628,0.9001525343169571,0.9210222298303752,0.9290629312150724,0.921882799871307,0.9338974001298752,0.9224306714329428,0.9061435981750614,0.9029132620756262,0.8998732223697566,0.9147656343374364,0.92688629885614,0.9125568838403274,0.9082138636831522,0.905692259266316,0.8873643629905635,0.8867856541199047,0.8928969666956317,0.8831804723842167,0.8748402289983253,0.8675470510102521,0.8734187718503132,0.8916034556753983,0.87679470796544,0.8610493218125694,0.8724504359946584,0.8734187718503132,0.8663241555416706,0.8596988076773845,0.8532769354826957,0.8509137207202352,0.8466850087619077,0.8430124286769871,0.840480388611358,0.836868495372356,0.8468611043249273,0.8645075170039189,0.8567873565864095,0.840296146518963,0.8515248420296203,0.8668297307256912,0.8645075170039189,0.8668373618145966,0.8760597897515214,0.8795809238097576,0.8833822900225473,0.8778743992735104,0.8773533753831617,0.9052337058490212,0.910773648414984,0.8932483739873895,0.9046081617401542,0.9240794405225512,0.935488127762451,0.9419015564329138,0.9263395029422884,0.9179750440097456,0.9334977213303244,0.937883759108716,0.9478798078544042,0.9594362194625564,0.9580756887459808,0.9601816641024798,0.9473368772259432,0.9523671969390556,0.968216301237819,0.9491644338995868,0.9389755872056592,0.9451140749138484,0.9445534675995448,0.9524659534263826,0.9625313161691782,0.9660580087772362,0.9698389625525928,0.961059025855066,0.9540553484163276,0.9625313161691782,0.9632472747955612,0.9660876481586688,0.977626903288288,0.9876380587713556,0.9981763334822162,1.0,0.991157984539306,0.9786395002886094,0.962682632247662,0.9402531790531924,0.918052973551823,0.9057697411399512,0.9089143549503552,0.9286891280659786,0.9447088064763896,0.926832416985048,0.9030787543214408,0.9092262575746434,0.8796521797759862,0.8600518895807218,0.9231827316176208,0.936830123762003,0.8879199920659888,0.8352880224559113,0.7263830751749636,0.58803942088715,0.4612687958258598,0.3011300428160876,0.1730195419627278,0.0402164810181492,0.0,0.1849222789968051,0.2750575011460934,0.6472769941106813
0.9963932015415872,0.8240935119141937,0.6106947319587684,0.4272215281613174,0.3540535057558137,0.3116523958660689,0.29101922202018,0.2833304317663041,0.299623611113465,0.3697432858678288,0.4745625742135612,0.574605938310109,0.6520092268622435,0.6946792297444793,0.7148929683644585,0.7620752164361725,0.836510352417332,0.8831448335773214,0.8917827483856858,0.8917236875514589,0.8940626857987227,0.9014530834005308,0.9033953857870004,0.892971399909283,0.8877281350403669,0.8911716406754626,0.8972256445167056,0.904757889514469,0.8987393077495379,0.8857407866503906,0.8974868608522608,0.9052736276486106,0.8867257363109832,0.8846162508030977,0.8803343668367707,0.8904204185973905,0.9028215816658556,0.8772357528857107,0.8797991750909243,0.8857124239590698,0.8846697964928003,0.8791107068727009,0.8578545062407879,0.8590130450752824,0.859947193891178,0.8622325085701261,0.8614759452867031,0.8541506560872137,0.8556379399595445,0.8517038070675681,0.8508346202905402,0.8493692506328558,0.83641035011985,0.8382016153947401,0.8376319119956702,0.8233280406117593,0.8346377175486143,0.8479785984562189,0.8453810646578807,0.8422766462293299,0.8397351233902965,0.8547922095164203,0.8686778628243937,0.8595443931896373,0.8677011116382575,0.8760935600911024,0.871922891135317,0.8834607304496255,0.8906471313403179,0.901463827326306,0.914556487700064,0.9164500552998236,0.921273556155368,0.9238694583194108,0.9267940418850068,0.930486070538414,0.923970614554824,0.9367477450255096,0.9474192908924564,0.931663051167714,0.9373370254906732,0.948294501904272,0.9461972875929532,0.943137896925508,0.9456856582414822,0.9522005011955464,0.948845579387558,0.9495737057373298,0.9561421813506832,0.9561921824994244,0.9626196061703596,0.96374213323232,0.9559478976575588,0.9656231729691718,0.9632858547197786,0.9458275692737204,0.9581381694266778,0.9678076198971896,0.9566870755084736,0.9596332148043218,0.9559787506487532,0.9525324938050236,0.957431823655358,0.9656287623560262,0.979949815112098,0.976616765094567,0.9820117409832992,0.9814149535579542,0.97780214359201,0.9890886238309956,0.9847306075369298,0.9920223498092456,1.0,0.980567010693392,0.9640319265013488,0.9453167417394148,0.9387887260747751,0.9700813654998932,0.9755515340205856,0.9525423743985598,0.941349999494834,0.9251083422035772,0.9048003434000494,0.8919979917492121,0.9102130122966572,0.9601610714079508,0.9561564592113728,0.8763158649608292,0.7707790584336964,0.6405097305296354,0.5070450784940717,0.3500411744781112,0.1804881530357744,0.0308237185043591,0.0,0.0939038840000161,0.2244267367342303,0.509169554589016,0.6282316166991355,0.7859392128534158
0.9101657283096438,0.7948972933874859,0.5111988424894321,0.293760304272307,0.061834149503524,0.0,0.1703159123124328,0.3330521767448653,0.3620195683437271,0.4494908408905522,0.6229501691261873,0.6111514096128392,0.6221849160291317,0.6214230869374147,0.6250915794822116,0.6220124561540229,0.6012744622037549,0.6041510218277033,0.61050264527395,0.5936224989439289,0.587370666786574,0.5844303445384808,0.5764279392513392,0.5679554146443047,0.5559387122720737,0.5545632136865767,0.5403006186369625,0.5241516353423669,0.5309558726191308,0.4923374244202834,0.4794846551015388,0.485093870969157,0.4649304599514916,0.4425738823904647,0.4414987479397906,0.4366556109302894,0.4393977989080857,0.4119002781266474,0.4188205428966097,0.4241624105565293,0.4191852486560092,0.4336803712466901,0.4404765138071119,0.4642716897109913,0.483001565010749,0.501118241758582,0.5386000588870856,0.5571781941405543,0.5741524272343222,0.5787361946298177,0.6086921238264837,0.621075085098548,0.632834820950487,0.6357115075029424,0.6279422405297462,0.6374375116606493,0.6465735839875123,0.6481188246942813,0.6610055144065629,0.6889720852118322,0.6875005354544381,0.6725294809601433,0.6691942384844394,0.6809346689459391,0.6937116198516055,0.6950679614256041,0.6793946584355491,0.6934921141754014,0.6982456399815957,0.7160147084173178,0.7243232275232354,0.7337537946301274,0.7585375339368441,0.7366836755166747,0.7483087865105736,0.7416047195341262,0.7286031035584366,0.7318739769917162,0.7531887037564128,0.7387465814782309,0.741221359961375,0.7289439186955657,0.7193159946950012,0.7266377519119593,0.7081818599390536,0.723700410145197,0.7197659522199166,0.692599056813135,0.7001857204365282,0.6848103059109266,0.6919566356739616,0.6965446092898635,0.6906215913163998,0.7126545979537124,0.6937675780660314,0.689759283876783,0.6844608815696065,0.6908307104667536,0.6701079818064193,0.6940837187530078,0.7333127995157942,0.7704994151289232,0.8023452839882607,0.8328369143838028,0.846122377660273,0.8665537384654727,0.9398402100736138,0.9852598424912384,0.9561795054878272,0.9505157361672764,0.9027516519737108,0.8585471785679909,0.8404961062785451,0.7976066718784232,0.7044418703565455,0.6273502071047449,0.5942056926935371,0.5918649116835641,0.5952836447312702,0.5896517978495632,0.5820518027009095,0.5738566338159992,0.5875164394189428,0.588273734888895,0.5964075974662553,0.5988958364998258,0.5763790145212663,0.5876494627521118,0.5972637068594681,0.5744521301151704,0.6082714501757709,0.7106674281516911,0.7515199970943531,0.7507041870988768,0.8568629646938115,0.9416929469425293,1.0,0.8859611878108377,0.8259161818976143,0.911071372076838
0.6351305506657422,0.3196313771519453,0.0980533175943431,0.0,0.0888039259450171,0.2288897319355042,0.3828564864828638,0.43750115577048,0.4910641590434312,0.5949128528784915,0.6184842724661151,0.6124263528739677,0.6201597282356076,0.6196774712265026,0.6177239563589336,0.6205550919753204,0.6094802197842561,0.6200933100911965,0.6165361971731799,0.6099742575032302,0.6145122158837901,0.5979096927893295,0.5877047979576457,0.5948147242877422,0.5970179444109819,0.5807321362166801,0.5732142417890449,0.5565554260138587,0.5606120209956451,0.5527291185486523,0.5513237986383002,0.5314226147683864,0.5333052911415057,0.5458160774713728,0.5142860386567244,0.512886377748454,0.5221456356826684,0.5458831618483977,0.5507050354958084,0.529988085566592,0.5642627531113501,0.5707320848579368,0.5706732337803723,0.5895596563365472,0.5982572547365205,0.6213923015024723,0.6377376651682476,0.6443344445107497,0.6551678145345785,0.6614023811726035,0.6606557888212433,0.6749206028015448,0.6849553337144058,0.6853452747340568,0.6756426711144929,0.6708391667245844,0.6841048009660279,0.6815521915260714,0.6928918591415074,0.6903633968176692,0.6896224838210817,0.6898227045301132,0.7115310236940781,0.7103804813115631,0.7119304277609304,0.7195617248377577,0.7121981880794386,0.7217086013985448,0.7276330502703355,0.7377257254529814,0.741325695095671,0.7388822750593977,0.7511004580675181,0.7629136797701584,0.767804701684648,0.7738305355777201,0.7713338964350466,0.7711722658588684,0.7647647204294762,0.7533643959916839,0.7688611510333913,0.7668473397291984,0.7475092718829628,0.7500891090096005,0.7418819897878148,0.756613415282171,0.7691508334259938,0.7514793552083101,0.7520195458338385,0.7340024964165353,0.7298216848285017,0.7479568259641567,0.7408739973338294,0.7522431885148749,0.7748705230977044,0.7753669617981743,0.7973137421511558,0.8276751119680231,0.848040783993919,0.8637507239316973,0.9013072104002504,0.9330439562310932,1.0,0.9734836398631428,0.9583077195514323,0.9450333288827724,0.909787540645556,0.8948399997856609,0.8730399782340693,0.8334834614590874,0.7720071952486263,0.7262982905949883,0.6840282848658648,0.6547806045916276,0.6537088175822826,0.6474853558811892,0.650605825668359,0.6500515439845421,0.6452148478540163,0.6679940030160463,0.6575099163318372,0.6497572552055864,0.6368809218280654,0.6507859374418389,0.6596254751896168,0.6392482943530808,0.6496095566822997,0.6682279233289332,0.6956718473328125,0.7857235271079637,0.8634264801259871,0.8657935139695068,0.873655647131534,0.9236730526573244,0.9625089919539612,0.937876146148666,0.8866192140499969,0.8786429309134112,0.9549103307348832,0.8870373028410592
0.5566562212154257,0.5428211430641907,0.4663435978545308,0.3588197887467618,0.2951257607662718,0.260543736447681,0.2203114947630375,0.1990476795489454,0.2144261718492256,0.2731536815369128,0.3170050469008463,0.3358159100227683,0.3417741277616635,0.3715113462154893,0.4308653180650341,0.4275518526504883,0.4256048801181882,0.4239261780860752,0.4225106623374685,0.4247273650208454,0.4299367204497142,0.431135779795944,0.4270693538207967,0.426150714112268,0.4373173276297475,0.4351331144593842,0.436159775351307,0.4260093981517276,0.4325786569811813,0.4389579173350227,0.4298908432011962,0.4293997812032439,0.4257786575215328,0.432876152078149,0.4299429011589505,0.4283703167991554,0.4314908802258024,0.4243507277228108,0.4298298396185778,0.4260864859643427,0.4159822947855849,0.4185860786392882,0.4129766227260872,0.4192199355469395,0.4126155187801894,0.4082259169752328,0.4060236318531684,0.4086405876526412,0.4144940000015088,0.4104454986094633,0.4081191308810532,0.4117957493667843,0.41544241343029,0.4075228880540223,0.4102869335052353,0.4211044606352243,0.4260336209880675,0.426572304096298,0.4255123221114075,0.4295279515338361,0.4398422061247758,0.4425359900874266,0.4459423363161615,0.446535961596164,0.4553195178429251,0.4653927510894706,0.466529896325664,0.4711235650443156,0.4738391804369026,0.4915226168957994,0.4851390013086156,0.4842636811262105,0.4936958618423591,0.4993733239782343,0.5011811282718921,0.4952033299829784,0.5040814695021297,0.5019663236083567,0.5050172871261898,0.5145026614155025,0.5134078495638881,0.5113151856271545,0.5095156220452267,0.5141858119091408,0.5209970341893922,0.5240175185475224,0.5187140419520859,0.5142129154507222,0.520925225330536,0.5239974658916693,0.5227245275086386,0.5295813831774638,0.5360776927958035,0.5371761783360756,0.5416223065252482,0.5481647688310359,0.544481304722983,0.5458956450315703,0.5625954459488732,0.5572915693529524,0.5658460639189196,0.5633733872414688,0.5687373393487091,0.5752093349025282,0.5784293668706371,0.5933564533613207,0.6052726976108094,0.6227741661652187,0.6390347840947387,0.6534459436450897,0.6745475533996699,0.6943754896826103,0.7012074277774126,0.7260043700754655,0.7518424013530824,0.7781728367355392,0.8051074833757255,0.8199377469421849,0.8465984634262101,0.8811199087241,0.9244771717355236,0.94053778766855,0.9754906194535568,1.0,0.9816242409135548,0.911461173523175,0.8459913398842536,0.7855275298491151,0.6452173407016931,0.5371213800241267,0.4627902514478482,0.4113015399966011,0.3711972265369935,0.2947256725626562,0.1760896166698868,0.0803633078082147,0.0033146706791628,0.0,0.0895242487223361,0.1971033614058235
0.8791598642968279,0.6629284551237281,0.3339054494729689,0.1501528418885948,0.0,0.0293503173045155,0.2478095342080914,0.3554279674472205,0.4049172593198714,0.5780685782695916,0.6239873202476597,0.6070043056574375,0.5988751591001504,0.6051035974990919,0.6101987814383016,0.6227402387614943,0.6132148609777506,0.6051420065196857,0.5970387220560397,0.6044554908815356,0.6002824245035017,0.5912006087662175,0.5720540264148999,0.5915859254861737,0.5838436632731678,0.5643377078653912,0.5644277061122325,0.5624215385115984,0.5441495911666905,0.5300837207790265,0.5128593528493811,0.510995717449078,0.4857614402946694,0.5031724074270748,0.5068745917892168,0.495533568376132,0.5092903587144169,0.4756513757149245,0.4985901525399318,0.5004060903376664,0.5117485123030108,0.5413260268691995,0.558241848661251,0.5685654453271439,0.5841501375364174,0.6008901644239183,0.6155291030939016,0.6172937052734867,0.62585388474734,0.6529077500246971,0.6518344293874894,0.66196287269397,0.6799022612187435,0.6608256966521758,0.6770234118389806,0.6655993873896175,0.6541624603687293,0.6674828294340643,0.6856779987811683,0.6847967091575912,0.6781789200385383,0.6780881995276986,0.6856887007462855,0.680322767174611,0.7048442439170651,0.6997793565054904,0.68808762423775,0.7250422246359978,0.726952403796178,0.7229761788286506,0.7342014101233144,0.736138462843351,0.7435329986922572,0.7375372197691694,0.7281328797871365,0.7381522564839841,0.7210455894073918,0.7102249460819543,0.7323350295265822,0.7192411366453928,0.7068127989155184,0.698823261391538,0.6941014478960902,0.6938155737292205,0.6864575218523049,0.6914985434070801,0.6858613604021863,0.6852135177743459,0.6698043268181413,0.6781548406170246,0.6812060634166477,0.694837255456723,0.6699381473578433,0.6829688428807216,0.6600527444037183,0.6530189697819129,0.6797788237801758,0.6617116494019617,0.6645094020308135,0.6655320625965888,0.6769935216775378,0.6905097269161349,0.7382409896565121,0.7845727939703088,0.8321115577826993,0.849005090240806,0.8750298638366256,0.9171045002845972,0.9883156816906328,1.0,0.9768250398813564,0.9439066346088232,0.9173141348147132,0.8702104497837501,0.8098355419706645,0.7333381281577823,0.6191490561425891,0.6081425952019216,0.5878047192136416,0.5784180413300816,0.6007420246667541,0.5835485806110914,0.5965087122761106,0.5966611841341765,0.6282294451489361,0.5989863951713373,0.5938259449656486,0.6103313205897192,0.6053614531619435,0.6088618381494179,0.6083802423037024,0.6426084822357686,0.714679254942121,0.8371473544174207,0.8232513806921689,0.8813900879781322,0.8679963324413001,0.8293039826600876,0.6862263247015074,0.6827305891958293
0.7474601135086105,0.6023735818663842,0.4511013582845505,0.3951803851235487,0.3184675143892862,0.3047684149713817,0.3176843387554883,0.3581827812015418,0.4652308800677165,0.5872617275383365,0.6941788802108241,0.7602391604622467,0.7735535659563283,0.7815354370783613,0.8381796675542726,0.9114677667918152,0.9414080241675168,0.9395663557837776,0.9524478499758584,0.964032969085626,0.9593554489926872,0.963636111690184,0.958202133209338,0.9499553015502574,0.9597762702739846,0.963658677910046,0.9645204754038738,0.9610639823454552,0.9595317857536012,0.9550302813361458,0.9472033391810336,0.9631986170510516,0.955368142956199,0.9542353724432344,0.9774792546493212,0.9504437837163836,0.9415393292213916,0.958799750844421,0.9424429328777664,0.9400606090932704,0.9503420961702658,0.9459712525372254,0.9378017961712076,0.9264641080128366,0.9259068673953432,0.9401436191208564,0.9339156446370496,0.9201638221519466,0.918617143138139,0.9145249114194548,0.9131440195164874,0.9024931142075108,0.9038987632662216,0.914201324460194,0.8959071861303449,0.8886425925792547,0.890709312469714,0.8807786269654981,0.8870706884224416,0.8841806278389512,0.8634462746509876,0.8727965474527247,0.881561548668988,0.8693689835620544,0.8788047511309216,0.8803616713009577,0.8728864576691796,0.8901336944331442,0.8930742892465492,0.8814907042116183,0.8901083895434302,0.8959078429913899,0.8916449701056451,0.8990889685673228,0.9050185875306668,0.9056546011072166,0.9124169918611515,0.9241357391723234,0.9355452203541736,0.936932980967046,0.938671392053672,0.9486024867844174,0.9549485178755268,0.9546241691253416,0.9583759222727803,0.967599835785578,0.960127460087318,0.9502509142036728,0.9698764448151854,0.9857233497371471,0.975260936266313,0.96814503674871,0.9726073708421892,0.9708976475845889,0.9643989351245752,0.9743288000771344,0.9871197481776912,0.9828625142236648,0.9750343779665248,0.9699694126883256,0.9773179753260998,0.9917210409104474,0.9880875017651304,0.9807035819551968,0.98468831720964,0.9854940086969576,0.9817912682961822,0.9815790644038948,0.9816384798988012,0.9834977995868516,0.9940188562686796,1.0,0.9928808035855864,0.9857057131230192,0.9763731279313316,0.9666612128312552,0.963974086634507,0.9608464459166972,0.9529318306501589,0.9413102295199244,0.9489555107720424,0.9600887619477988,0.9375372175789212,0.9167265018810904,0.902640809308546,0.8808723839113315,0.8959909831320265,0.9303614198889666,0.9160920580555364,0.861860305693141,0.7943776853969523,0.692299279675685,0.5551248533772823,0.4032961656590628,0.2482155960486396,0.0914356660555046,0.0,0.0458850387905618,0.1845965262300271,0.4117380472737479
0.6138036641344374,0.4052710127214063,0.2492935090173824,0.1071013114406197,0.0333622270124541,0.0,0.0039229002998589,0.033957744652254,0.0591068144215238,0.1166364220504376,0.2192586401024944,0.3253971509473262,0.41084637929205,0.4746916424644237,0.5073030456508667,0.5244150638821314,0.577681251547437,0.65528975881597,0.6958642337681222,0.7021928411140761,0.7059892175568769,0.7158059929043871,0.7271601729985498,0.7189857402447603,0.7029011988461523,0.7152210042227838,0.7323674779821814,0.7236583767434457,0.7245495771812476,0.7307667865234444,0.7211522208914809,0.7317562310868805,0.7370968029950521,0.7218865166160352,0.7285982426027596,0.7231186002424809,0.7058884769485917,0.7222652805724437,0.7388373036965569,0.7389895037099189,0.7470380605652124,0.7425083839156936,0.7297445281152118,0.7400311334509713,0.7405755335955952,0.7353296335669063,0.7474754544552432,0.7361623750260362,0.7245504307278751,0.7306149628811608,0.7197570076792178,0.7189090915119885,0.7315730821998562,0.7295487285225561,0.7296020632985266,0.7331996327907314,0.7255053418509508,0.7223496485598518,0.7261739198889382,0.7225125646976062,0.7248192465799185,0.731326851618963,0.7303828306701041,0.7356040346842049,0.7434861467540174,0.7500636355240456,0.7602816679308163,0.767156844780765,0.7759969915858724,0.7915469507138843,0.7994955772775325,0.8044187679060573,0.8182470633083516,0.8284891119381574,0.843570841176956,0.8660860699225397,0.8651146331542563,0.8604349059551273,0.8690608948410905,0.8659468841004035,0.8652394228993173,0.8807754993063551,0.8958727373031561,0.9029782955987942,0.8990601948100434,0.8932804486486698,0.9058979064896072,0.9134313974486448,0.8998438316702888,0.9043913954639952,0.9118099781688562,0.9172665777176924,0.9484283295932844,0.9473661933638038,0.9277362666189826,0.9446676842088716,0.9429689888702432,0.9243248679520384,0.9331022526753466,0.941897437837243,0.945895754815231,0.9589150427583876,0.955754341174991,0.9462523383493218,0.9642985615221672,0.9786789456206058,0.966988213442168,0.9592735249731776,0.96264599945766,0.9628901457243576,0.9571650363721392,0.9597412464187884,0.9651420473525564,0.9521320292942116,0.9373108835423436,0.933175382585389,0.9352789267566112,0.9512888701449776,0.9611615087069124,0.9542373468774192,0.9607753814063892,0.9727011643604122,0.9575458704554476,0.9417951276856628,0.9662980737110586,1.0,0.9929604632289656,0.9543422729344908,0.8985172458174987,0.8031139738969475,0.670042331000224,0.5400013607621054,0.4088687056155754,0.2542342790220591,0.1197907128231933,0.0660788043371467,0.1460391260861535,0.3285579999056801,0.5222645685057752,0.7443377978939136
0.7961321278618201,0.7183615133705877,0.7346488230619865,0.7591168592026807,0.739644292272083,0.6987270431881404,0.6796508751619451,0.6859935200401904,0.6950653692121554,0.6940411631795702,0.6908257054024164,0.6900269124026718,0.6869557481859996,0.6816795309926194,0.6811104653882804,0.6884495672647066,0.6932573983457575,0.6885328900170165,0.6787961041944327,0.6742629422189123,0.6758444702791364,0.6755272145144329,0.671236593236531,0.6674689159633329,0.6695354308574226,0.671913203961242,0.6701221033162885,0.6648723878928253,0.6642586581159862,0.6719847431846723,0.6819962312092666,0.6876805587328833,0.6853615876721852,0.6799743270605023,0.6739979134087811,0.670159965689352,0.6695983470294052,0.6735910382864572,0.68154514273578,0.6888296968851791,0.6936537121449259,0.6938638464242007,0.6917509340476751,0.687651343997224,0.6833052466360323,0.6815796694564713,0.6854701606746632,0.6974128316140223,0.7120643359636918,0.7232206487236307,0.7249736557929678,0.7220254899159635,0.7248408798075089,0.7409152207425285,0.7687123419681497,0.798132883359896,0.825968287756683,0.8536122006485444,0.8843710005711269,0.91100529115789,0.9222935548553232,0.9159294563659672,0.9030439801864611,0.9009289023545332,0.9121753935662004,0.9271305817597592,0.9302660477089068,0.9186807903846026,0.9029587567505885,0.8945125114268552,0.8976496794806859,0.8996580920858018,0.891682195022852,0.8712690663206414,0.849498173440732,0.8374249345239334,0.8353487072313988,0.8388536788309547,0.8390796592320231,0.8399549027364193,0.8468876152995665,0.8694430342323274,0.9063612403719088,0.9405095973763568,0.9481821888409024,0.9117114045576358,0.8402865720181413,0.7544532649452887,0.6708776739680417,0.5843483483946351,0.4823087920018857,0.3656104074812606,0.2523874441316642,0.1658830799234363,0.1099672862571996,0.0734761712791063,0.040926468817643,0.0127777234969238,0.0,0.0068893396261718,0.0221241694349704,0.0285589052686782,0.0286020016136424,0.0387922423080293,0.0731147577180458,0.123303607414661,0.1749709241513547,0.229940513096147,0.3006652557952467,0.3869504031044876,0.4612970945474943,0.4991765737630349,0.5027365469842002,0.5002626323885793,0.5123282685711263,0.5373925614384731,0.565713831617072,0.5931584280505339,0.6254859798464658,0.6603171304708865,0.6912823351722603,0.7075635929358968,0.7110563141098024,0.7113363765231443,0.7150910705200646,0.7174593837043003,0.7060100228907075,0.689007150754537,0.6856632857272777,0.7038254306307118,0.7181460836545208,0.7070053711568101,0.6903084712497143,0.7025975512245449,0.733469318889336,0.7237794402349793,0.6628105459853012,0.6392927265686318,0.7582928679615223,1.0
0.6377279559521573,0.2243916507364721,0.0696790019779223,0.0,0.0323116119672988,0.1914775064602134,0.4038197107150355,0.4400264564880748,0.5367689303591358,0.6695360690646937,0.6777657116968931,0.6698710167278881,0.6585345536572621,0.6689811315989285,0.6642849865744372,0.6806979035285314,0.6706282894996471,0.6723184076224993,0.6632078191866366,0.6678382413065337,0.6643294116904211,0.6623973445641861,0.6730228889664132,0.6586682141712694,0.6506312776936761,0.6507870300066456,0.6615237437509175,0.6312615119661937,0.6460376641888702,0.628761751116429,0.6294925405647733,0.6137544266471768,0.5969281144385178,0.5955558025108406,0.5947349678686268,0.5824887536247441,0.5866653696252365,0.5926631991198008,0.588853629006161,0.5973050688800033,0.6092029114765277,0.6203470314589111,0.6201459337356529,0.6446044676105339,0.6684666776112759,0.6686916145876908,0.6905013772843582,0.6991980201833327,0.7002681933344173,0.7194513143791643,0.7230257483508105,0.7080384228397156,0.7242351201986446,0.7442552198682542,0.7341493544522196,0.7394608432926646,0.7527181500032359,0.7609765001349659,0.7557710329869469,0.7765719857993695,0.7624371192736147,0.7648312072903726,0.7836565060703117,0.778043790539122,0.7609540563194858,0.7719820518932332,0.7939517279591092,0.7782281224891198,0.806872309559853,0.7963863152394738,0.8037784868972506,0.8020124594904757,0.8074291539133028,0.8250753315348394,0.8177095184950741,0.8032476775591837,0.7949989881498295,0.7844907252329544,0.798572456207093,0.7872795326862333,0.7932662002579349,0.7889669641179934,0.7993572052098444,0.7717884696437055,0.7736585502917948,0.7781917969101473,0.7698510670204721,0.7709604336590933,0.7755079661495865,0.7804268271314757,0.7589942430303097,0.769189508013506,0.7623660261439352,0.7591768559400024,0.7700560021973407,0.7637543777121452,0.7735543691879784,0.7542083353722929,0.7631390370532902,0.7999831884488068,0.8552498385933229,0.8809905239679049,0.9051123374686064,0.9248809852673984,0.9598510322923852,0.9879456915861736,0.9952148011106672,1.0,0.9719587903891598,0.936726530522042,0.8950563621066057,0.8734395960176355,0.8405458860634608,0.7678121699845144,0.7040795789377309,0.6551995539019373,0.6491637934436528,0.6508966586844684,0.6649254387972716,0.6515318227667867,0.6261015607117995,0.6160256514278768,0.6348432626721999,0.6481496149128719,0.6520746795939338,0.6387991059096154,0.6448463455791934,0.6391769538100658,0.6540181470039921,0.680669478589345,0.7466143651153209,0.8976918292704101,0.928398261701392,0.9410258045471692,0.9415929931348884,0.8361043358016583,0.7464910409428359,0.6320862172115556,0.7715933530441536,0.6053270391306612
0.5184941071882772,0.1088160190334222,0.0,0.0458956771779373,0.197038546429928,0.4096547268283222,0.5367936069906252,0.5667323677599707,0.7056850526636644,0.7507290014983201,0.7313586863109197,0.7411458055446586,0.7493077014064362,0.7376119753596182,0.7483770223297506,0.7441133556673644,0.7461371503992555,0.7539257801914399,0.7271526814311455,0.7299098695907451,0.7193461249105713,0.7129268242468021,0.7014340237253411,0.727585637649367,0.7059048330093192,0.7117693232684901,0.7238421267476457,0.6987224218033099,0.6903301787403728,0.6749756152966468,0.6837381052414798,0.6690841630522926,0.6527721303654862,0.661769808581209,0.6475904735946775,0.6584863244000223,0.6431940000517264,0.6584607339507837,0.6877606362913957,0.6730166896933987,0.6887675998958959,0.6995915942751908,0.7075523219862396,0.7338241849474322,0.7521121401850808,0.7614638443833011,0.7358357699950497,0.7537176458438571,0.7707618791742545,0.7635565467389607,0.7822142233040174,0.7527171349391818,0.78477828262358,0.7749946190575492,0.7702445783184101,0.7853102471580117,0.7664682936911215,0.7694807048404607,0.7653171718470634,0.798668856542344,0.7869416816284659,0.7838968040077545,0.8054094854702496,0.7908877081019431,0.7955497607408295,0.8002488086778495,0.8156061423227476,0.8307375237102392,0.8220371477647008,0.8355637115221619,0.8425329001329516,0.8554152037201118,0.8565653360838807,0.8531713030911767,0.8643470195740184,0.8506033446908566,0.8463590468289395,0.8513054113332758,0.8435118617964419,0.8413359170056168,0.8445324608797254,0.8446249837902536,0.8343298039342644,0.8274947651035196,0.8185666674684876,0.8320362642544031,0.8174912807993467,0.8310294709615094,0.8330371313062694,0.822918760519756,0.8251823720795552,0.8204286345235311,0.8246870230333033,0.8324513829694301,0.8183892705978926,0.8185023846337814,0.830088701298944,0.83423389438498,0.8465599934238619,0.845009191702322,0.8661017355325414,0.8841012563088392,0.90516138667529,0.9630787346637412,1.0,0.9920908646482118,0.9652205764393756,0.906970322011922,0.8925126164727917,0.8741411818709112,0.8723236480589329,0.8885141732113045,0.8648400385163465,0.8099005844431169,0.7561895928093656,0.7490129010589643,0.7451089159301518,0.753273484478403,0.739850811855834,0.7512477739670178,0.7482203718242989,0.738558371333922,0.7557313756119687,0.7522667130396533,0.7578721136779631,0.7683295807507009,0.754309673403832,0.7685065973591874,0.8012592252371294,0.8904905896658052,0.9975839263945188,0.9830102416658392,0.965036142534356,0.9434568029177602,0.9013423388082034,0.8288403609327963,0.8843991448729605,0.9939995000977556,0.9597029777642976,0.5765344186493198
0.1747877217009207,0.0156767006802625,0.1059280175409821,0.0272574047629279,0.114396076494348,0.1484494572996598,0.1694237101603839,0.3011629372593228,0.433010129935782,0.5813101673232486,0.6566778363768432,0.6495246079208437,0.6768269406935473,0.7660162023917481,0.8680242838153447,0.9047114712959172,0.8957565419413152,0.89633884205416,0.8968446002549417,0.8981994570754523,0.8882271633897217,0.8788047233195918,0.9049090359497384,0.9082699920249016,0.8811448735064301,0.8796657895653505,0.8852122406964229,0.890060310189255,0.8978213008460152,0.8917955418453494,0.8823672958459935,0.883503555725236,0.9037611222117048,0.9076162616883208,0.8900339389175285,0.907279848854714,0.9150600534312998,0.8852819143177421,0.8755581885211262,0.871730119498352,0.8724811893266655,0.8803948018038219,0.8716193003683824,0.8708634252071564,0.8647232399885764,0.8536871468909509,0.8710476337531498,0.8771715549580726,0.8650220971072201,0.8645119091059694,0.8568794296043646,0.8407027865349791,0.8386579184967462,0.8435488159824001,0.8474770039311108,0.8508030132535506,0.8417613408457052,0.8316754947961742,0.8458100178848069,0.8552837354277386,0.8359808737077057,0.8349509369456645,0.8431892634325677,0.8341636358954339,0.8531468817057017,0.8615160051544498,0.8377164808962435,0.8498771701318879,0.8690917718452542,0.8808191880535463,0.9019032421536692,0.8921756029136941,0.8867462635516289,0.9214780733635094,0.9338647713649656,0.9182592340827556,0.9349239334453044,0.9645501523911894,0.9540867660348408,0.9424521409286198,0.959090115722472,0.9553030662073312,0.9392905135215188,0.9558799186291362,0.9737721149604526,0.967520525077764,0.9608912261457192,0.96103118115797,0.9639687911094534,0.9700129240231632,0.9717409266797192,0.967063005501721,0.9704599361026114,0.9883751634433932,1.0000000000000002,0.9944717523100072,0.9854400315119158,0.9814510517782974,0.9837977317825588,0.983045075823793,0.97764434116325,0.9794616266582598,0.9741452706789308,0.9612823110677688,0.9641584769937844,0.969754236522938,0.9750991650858832,0.9883044076956908,0.9905936361773056,0.9831557071875408,0.9854390333862104,0.9937297965552744,0.9842623271804328,0.9565906261315928,0.9413766950697584,0.9332008868287598,0.923191007780768,0.937671197860072,0.956210510709868,0.9421741826845812,0.9290699706551292,0.9294588468534646,0.90018435851191,0.8746095738038571,0.9056052879237264,0.946348912623698,0.9387947637544792,0.8668018417109159,0.7760863593381457,0.692258900456768,0.5505851379769322,0.4182464919210607,0.3189021016492849,0.1764828553862336,0.0684871117401257,0.0,0.0859677516900029,0.3173737093101241,0.4339740871298567,0.7603925941671754
0.5927776344311859,0.2077043871074786,0.0538882655157056,0.0,0.0643464558749115,0.1382733322372437,0.3260221454402459,0.46729569434736,0.4725883947908002,0.5787766582889322,0.637241233642302,0.6330214672973862,0.6310204038731401,0.6232543883480984,0.6322839187972955,0.6356292282893407,0.6312627053883755,0.6007836973654498,0.602984508417543,0.6177951346899616,0.596172155177232,0.598742083529556,0.5948276537798429,0.594262130066585,0.589885545926619,0.586260473525799,0.5894678267172373,0.5678318958851774,0.5771840908800406,0.5773268859113456,0.560368967548643,0.5706748530241426,0.5686359929883675,0.5661362066506749,0.5586667039688056,0.5658219366526974,0.5885809260713379,0.5692010311054725,0.5788577465807139,0.5745692511493279,0.5776296598120123,0.6155676142830183,0.616140768121634,0.6240611155027105,0.6525053832249651,0.6453425188492763,0.6570689445971758,0.6661379828360872,0.6655550132194938,0.6692779725000947,0.6628326341479737,0.6763274649612614,0.6668966660471922,0.6726623770877815,0.6691644368926759,0.6661052010230227,0.677677370103969,0.667296380447731,0.673452855725185,0.6707526154365441,0.6731982681573487,0.696699302696456,0.6859059664040146,0.6848589932156892,0.6919469485889642,0.687003156813597,0.6943296937222881,0.7044980395700088,0.7047610854396094,0.7240087854682563,0.713546431513649,0.7309368108450727,0.7303563996936296,0.714805635597118,0.7321428875765331,0.7274053018578471,0.7403217365870824,0.7326330733963234,0.7329312858260311,0.7383375875733501,0.7400392950672705,0.7237336325900559,0.7284710961264842,0.7315576972190817,0.7284220885095796,0.720294624970645,0.7136270060133721,0.7197600979563358,0.7365278318025255,0.7415704643251617,0.7403496583658756,0.7354650450971582,0.7334131585529712,0.7157744187194749,0.7516628566688079,0.7725782505305216,0.8013016467536739,0.8285632074509373,0.8582055630647171,0.8875314979594937,0.907454019996787,0.9606188412309856,1.0,0.997860400692642,0.9803016980702222,0.9809124213866822,0.9453289378213864,0.9177412021882028,0.8813436401691154,0.8362768396825918,0.7886642669026936,0.7105667680925608,0.6557573362300345,0.6454177643228309,0.653485595087747,0.6351483862793962,0.6490868646303292,0.6360666595696528,0.641165246867059,0.6410944469479625,0.6397261325418095,0.655887905829936,0.6523606646063188,0.642038270428059,0.6583202754439227,0.6686278595660939,0.652376825559576,0.6560998083994225,0.6857018075267279,0.7533431525052626,0.8283402248303923,0.8259427551685602,0.8481811823783861,0.8486878784673759,0.8322934631113593,0.8193433781351654,0.8003832042879833,0.8310248509940373,0.8531030126761274,0.4943730527594268
0.6269908960470103,0.4733972514504387,0.2924029315083377,0.1355577542283466,0.0442991224071527,0.0,0.0352003713581146,0.1398355948120903,0.2515452189830111,0.3399024723615085,0.4014316631630456,0.4053136153798001,0.4524074859903545,0.5452725550461172,0.5697530136059383,0.5614647137807125,0.5807338323643593,0.5821991821499303,0.5798446492114248,0.5788875116914413,0.5671140977285575,0.5624978271557372,0.5618258541383785,0.5642992417177191,0.56601459677284,0.57160762159079,0.5661840320942242,0.5639522977266327,0.5640660341032551,0.554398306871708,0.5520667843280959,0.5683974244507598,0.5634680002300309,0.5563561121331608,0.5502068964529844,0.5604654750616657,0.543473894172005,0.54258742461859,0.5434789418043624,0.5399118835789766,0.5389308150637704,0.5438875900387131,0.5317363974619939,0.528227287583246,0.5278031798811206,0.5185117056789682,0.5088382817655832,0.5107961761122588,0.5128449453402503,0.5189048514937404,0.5018395255384666,0.4947915640430088,0.4963457257506643,0.4980960260752447,0.5050504035441283,0.4929629943961418,0.4982563285704821,0.4992881104395871,0.4859564448028357,0.4868615618023563,0.5013572833652198,0.504260311475346,0.500725341429059,0.5064940900306398,0.5071220469938869,0.51023596050693,0.522047677934012,0.5150986280796146,0.5300421842392173,0.5359732381627413,0.539457447130903,0.5497278183959554,0.550443976093026,0.5546220603169,0.5869149380090137,0.5749933708663164,0.5677100285542002,0.5849458695119426,0.5789393705858571,0.5847371013147945,0.5974322698970453,0.5983801815286404,0.5909971616016283,0.5999112960937483,0.5994907650042384,0.5957509846899887,0.6023363888239088,0.6037782606762475,0.6076887960458252,0.6037270877380475,0.6047807540284617,0.6122274463458395,0.61462679456017,0.6303467984321955,0.6303130367235537,0.618938366627212,0.6197889491530978,0.6232132753526403,0.6444358077734971,0.6385653858889484,0.6401165107449903,0.6600500611228031,0.6577017380606514,0.6516412448991751,0.6662080071548161,0.6795109666693206,0.6691089608518965,0.6817987754122559,0.6964053317187697,0.7034128167069155,0.7043759600026439,0.7109896739886501,0.7285425808673098,0.7178111633488122,0.712910384799643,0.7230002550859908,0.7415358769656715,0.7318297508214732,0.7221928677575206,0.7297790042196965,0.7362351391729917,0.7418334931962354,0.7557895173895548,0.7764897097420498,0.8079617531685506,0.8843207064839964,0.9311291846292038,0.9147235045235806,0.885725787252875,0.8428796448299432,0.8035071579578835,0.8066694924711454,0.8972024933363061,1.0,0.9506896588203,0.8466027230966405,0.7856100639576222,0.7968087764216232,0.7887746256014545,0.7088851676365158
0.3962876829277847,0.1650887499841201,0.1349828211915306,0.042077778201241,0.0,0.0418804915849533,0.1921931660099077,0.372658778064449,0.4377665042146904,0.5258900889421655,0.6041984616306451,0.6131904952262939,0.6142030207205834,0.6169039735023609,0.6264422133395291,0.6261829832111907,0.6168399435120803,0.615051593674086,0.6205650780911065,0.621396752356281,0.6216479692927535,0.6094008098120574,0.6086160794626992,0.6101735061352213,0.5917049365962778,0.6002192476812551,0.5907622721947111,0.6010249844591233,0.6007351099103053,0.5920051350883623,0.58447683952359,0.5747302595013217,0.5864952287137059,0.5888655866113401,0.5757692625091053,0.588983692994463,0.5826089597633421,0.5850517682235341,0.593822726016489,0.5960616908211084,0.6037343209261431,0.6059912290599128,0.6132182209970415,0.6263556592405836,0.6303251395868099,0.6464671702219054,0.6279129795308975,0.6372188156219424,0.6340876988659346,0.643408071924878,0.6398761240420086,0.6498274293199782,0.62105593828805,0.6251836007149061,0.6380860409412739,0.636137155482289,0.629334819792302,0.617228929096642,0.6403734638154641,0.6280119145417115,0.6336622128228155,0.6522124629456826,0.6387127471012655,0.6351845104967294,0.6447408878363985,0.6559956591927779,0.6702562945105703,0.6745163663420208,0.6822852111128359,0.6885918036625314,0.7000524695936114,0.7100880964196395,0.7167601273464377,0.7188110951655837,0.7161061423537655,0.7101841886204648,0.7321145517714032,0.7174858281119366,0.7140495883620874,0.7178487980086784,0.7214826047162788,0.7132124769480009,0.7091426610640277,0.7033099429695459,0.6980696498332979,0.6953588187036328,0.698191925926821,0.6973562929450845,0.6869769719111575,0.6898433586170347,0.6871735045564561,0.6839739320211198,0.6857631789517976,0.6844223293392199,0.701380649247517,0.694730363965404,0.6873444169429468,0.6906709590780991,0.6837681776171509,0.7104278820773438,0.7042043783110078,0.7176038312113623,0.7371683794718575,0.740826816390255,0.7886170624283995,0.8273033728870054,0.8325820698528005,0.8007287727177471,0.7450553616109046,0.722739691250503,0.7210768089722724,0.7270779591690331,0.733821637996514,0.7226377015505729,0.6789633521556067,0.6608802196684885,0.6243486991292932,0.6182557151185392,0.633927047272107,0.6306701359070331,0.6337208995048004,0.6314711850805341,0.6252390810282883,0.6379246337976924,0.6397681185093665,0.6426413145618459,0.6481821164839142,0.6519768713571009,0.6589404087151314,0.7006899601798557,0.7896579702826539,0.9333091265856944,0.986499020700871,0.98940583707224,1.0,0.9124614008536044,0.7157401550975867,0.5022134714372107,0.484416164777984,0.4315507437746747
0.4807189032497774,0.4969043777575092,0.2430521889726987,0.0882843554920236,0.0345645448501823,0.0,0.0277556717965831,0.1952383758661243,0.3217161940812368,0.3372874003302281,0.4436809535359836,0.5170966604698457,0.5300943788194393,0.5292895069193297,0.5374821790662884,0.5568322199807711,0.5534628426870208,0.5738174193333225,0.5882773440067374,0.5871844086391182,0.6076413591131008,0.618526129065022,0.6012581451833806,0.6030474487678303,0.6124828411918637,0.5950385205328844,0.6209175857264732,0.6179439300861876,0.6119966711975448,0.6322345475337331,0.6292285606539004,0.628535706309495,0.6103359590842888,0.595121512960372,0.5953150053842643,0.6072011386464217,0.61751912910596,0.636161203314682,0.6087164902582268,0.5987374267953783,0.6329214075189066,0.6209398938481724,0.6277012889751232,0.6353796042703974,0.6775425920180211,0.7037833504558586,0.6837373576019008,0.6892571742344881,0.7091347315883835,0.7392106502022564,0.7385705671758644,0.7480076271085087,0.7556791567457734,0.7572899212852832,0.7632230524194972,0.7861819974903183,0.7941689771205895,0.7804420299754817,0.7980359368159128,0.7966337337028133,0.8154942479263365,0.8046961974552771,0.7947145902739842,0.7967202526490533,0.8222097513374305,0.8160258417223951,0.8134957975711753,0.8211558045974748,0.8251943767635078,0.8434330945501953,0.8420899714659107,0.8486722205242019,0.856020732244764,0.8585020049306947,0.8745660927606678,0.8795381915296416,0.8777627067679062,0.8652345592044868,0.889633368151684,0.8848516471968024,0.8906351198848361,0.8835555214787214,0.8802059320742626,0.871129866979785,0.8676706537887549,0.8265678293543591,0.8221759296378572,0.8162957956489335,0.795433487019936,0.7818196721139699,0.7837958414467052,0.7781805649143398,0.784966394552627,0.7831664283074817,0.7834919772963013,0.7637457070686359,0.7852184105669244,0.7684871259844127,0.7846339966741604,0.7983927402998242,0.7948186135440939,0.8307153225324785,0.8353858461363248,0.8664690069767621,0.8971542294431869,0.9047417549467648,0.9524609193251384,1.0,0.9824474574901833,0.9695332265814676,0.9421552825209436,0.9065317703387904,0.8936663542542012,0.8381051317387809,0.8027065236513966,0.7414248613574084,0.6842580213577683,0.6758668109022472,0.6849615943680339,0.6771599701532218,0.674197799184919,0.6797648733367324,0.6629452668030037,0.6633269275469135,0.645860958181883,0.6468327778644755,0.6613016579443742,0.6601962713640283,0.6677924306960478,0.6579662125539082,0.6806462808108349,0.7648661933640095,0.8470080469304491,0.8412197252791307,0.8441300264319085,0.8424888583144853,0.7718948613960701,0.6929752160164365,0.6219900466898798,0.6931428237565526
1.0,0.8829268226079636,0.7370602861928339,0.59083050393205,0.4954431829299087,0.3769841536904871,0.3053859108002725,0.3090998652324214,0.3465605904615835,0.4347680153046653,0.5543362264630622,0.6562121648566365,0.7098265757698617,0.7178360401485043,0.7219996478513963,0.7584740626130211,0.8094965013814469,0.8542983457469283,0.8947284082217858,0.9081730479890932,0.8927294056759759,0.888377079012837,0.8939204709088466,0.8963923108585747,0.906065792138801,0.9073100350451094,0.9013497238370006,0.9050174010272968,0.8996109835697587,0.8909494816653567,0.9006706404153436,0.9003479818121047,0.8865671304748923,0.8910380349445564,0.8946892076504386,0.8897293563774954,0.9020825775596744,0.9066458660841976,0.8933081452409735,0.8929779393512102,0.8851509054957232,0.8706902425408741,0.8764442883643297,0.8784912743771472,0.8713947024304113,0.8688490532333824,0.8737750763170207,0.870029255563991,0.861208162538533,0.8780668116519065,0.8731054904301637,0.8487094997029261,0.8619833252223082,0.8618798691025119,0.8351652125131996,0.8267182348204086,0.8378331277519235,0.8499447679811221,0.8412291839683821,0.8328122108549948,0.8392021962313282,0.8385214433816538,0.8300860465226401,0.8211870551195842,0.8188593259289295,0.8184041769088997,0.8178090287257143,0.8248558054306048,0.8258943070209626,0.8285607251972068,0.8378331277519235,0.8354523645903356,0.8347960438777974,0.8409391024517807,0.8471356261042107,0.8564748538095732,0.862439673635344,0.8746097690221422,0.8946520541619388,0.8950794993919903,0.8933551332485831,0.9133145551086178,0.9178979871607622,0.9117181616618896,0.930499912447022,0.943455708055696,0.9376491333504338,0.9404463490814848,0.9315295796257272,0.9255101567216222,0.9427650393458716,0.9280956359147148,0.9165137020967484,0.9354986737875972,0.926209964678331,0.9197760471998042,0.9379406693223032,0.9530806074312612,0.9536666076524508,0.9458125414579064,0.950844253666566,0.9441633170055076,0.9343754953996172,0.9385992218780516,0.9264254893847376,0.9291205097821172,0.9551958637538738,0.9657836067068516,0.9747896711946288,0.9798466494797567,0.9601456616615748,0.944345555796211,0.9498054917848794,0.9491537757498985,0.9381540152508449,0.931756656696547,0.9149732809691994,0.8965780647442338,0.8955937645624066,0.8974175507606583,0.9103502397038148,0.9183428335633622,0.89648717194178,0.8835214469161157,0.8709439142584869,0.8301920459056296,0.8108053160979157,0.8303213595674586,0.8259812220528768,0.7765953880617866,0.6985431809999958,0.6102624717529923,0.5066061174291743,0.3648789219732488,0.263864292235195,0.1099950291909269,0.0,0.080800916419147,0.0970668391819752,0.5006908807775368
0.6047485166899278,0.3860147204428339,0.3038325651754875,0.1880813013562382,0.2192313886868009,0.2756027645993806,0.3461999540213902,0.433831505658225,0.5532502039417773,0.6438885135087657,0.6772988980680099,0.697985461537123,0.7602925626626238,0.843688333885519,0.8867954908437101,0.890391539082164,0.8723577425592227,0.8837897227067772,0.891839147166764,0.880512329416682,0.8847787996849861,0.8705978380080318,0.872511147979447,0.8777717778350314,0.8703264822289738,0.8739499293637409,0.8720072179396856,0.8684913888919011,0.8682018409640221,0.867576717635317,0.8607218211565475,0.8717711543446527,0.8800472539812726,0.8679494896324412,0.8719029096042963,0.8660302095791299,0.851205746577399,0.8556319723950097,0.8457117009280563,0.830395162435331,0.8353616921494883,0.8362934780584759,0.8309138099067832,0.8192145870512834,0.8165976466521854,0.8247129518742511,0.8175850136268739,0.8070266166677424,0.8030584825610014,0.7990013289185132,0.7889597142319129,0.7950751293043208,0.796728755956903,0.7904332943653414,0.8052493932176024,0.8076281764837147,0.8093614987388813,0.8064194398955198,0.7909293874980176,0.8075608208044462,0.8230074143259368,0.8116446447384995,0.8201538628132773,0.8368537406968077,0.8419937264525139,0.8510806337908269,0.8616211944698049,0.8793659066389072,0.9017706154085084,0.9106964036216216,0.909059164520178,0.9205888105300502,0.930656508982646,0.9213554889065554,0.9243497762773932,0.9355395911932234,0.9255626989600528,0.9263836092347484,0.9437816431959444,0.940289026260912,0.925959725067434,0.9250714545612568,0.9281142376235804,0.9229839388947774,0.9324482602351308,0.93052845605081,0.917669014495862,0.92938647272533,0.9342889373423994,0.9357085869007638,0.9277311250019192,0.9240687710585164,0.9425096586747568,0.9418168326544678,0.9341500802119864,0.9379738811234912,0.9393196825019822,0.949372087187594,0.9546726700256616,0.9511311418530446,0.9630225572851858,0.9679146603960052,0.967693343467062,0.9805788704585424,0.9817871114610304,0.9745079090043334,0.9807801284134756,0.9876506820010444,0.9877723889801412,0.992118335050113,1.0,0.9902252991343572,0.9846556888282894,0.987120793903203,0.9524466125426436,0.9135831063162188,0.9142365327194328,0.9306202959150548,0.9327005405688856,0.9139727131507852,0.8971330770909034,0.8789689348239812,0.8423830075323495,0.844936260584557,0.8800624057526047,0.8798187036267651,0.8313705869492386,0.7352575828168288,0.607793692796621,0.4761364581806945,0.36179502324994,0.2292435647513109,0.0944168556289466,0.0,0.0383018445132868,0.2365192757855068,0.4229097847978006,0.6601276854554416,0.7001594629965001,0.8060341844968258
0.6859078233260387,0.5598612761741827,0.9305069085443696,0.8873384755893936,0.7895568512855219,0.5695359751873051,0.403706654577571,0.3034794623146378,0.1637785220328,0.2135901060200625,0.3476631124514676,0.3219917167001815,0.2014408557519644,0.26055437785896,0.5650841730078896,0.821347904793155,0.7889574626139002,0.6005588638231547,0.4327091942883214,0.3949054785335662,0.5977057175757314,0.756717538997233,0.6992361217694423,0.7097068960230727,0.81163971088291,0.8957826749296393,0.8756453460652571,0.7269609610505983,0.6978265756745837,0.825519061857217,0.9005247526755185,0.9051800836626196,0.8964872758519986,0.8465376710789556,0.6917800464836045,0.4389856398085558,0.3306444974138262,0.5743420984265459,0.879060970291897,0.8847759288670589,0.7498524770550866,0.7018471008514781,0.6820024230933427,0.6718610769795056,0.7127476254330976,0.6802077252382691,0.5724136219737472,0.6006083224972939,0.6798529722621198,0.6588424518495618,0.7182361871555867,0.8306053255966999,0.735717493624637,0.6049890333879443,0.6952545781099075,0.8302087964762811,0.8363253517049725,0.7006682151793442,0.5121923798927299,0.5627592444098588,0.8463801926765893,1.0,0.9276565387705412,0.7551982904324247,0.5324518534106786,0.3473020988268169,0.4202717425073957,0.682024914815196,0.7425142807145639,0.6297751417957772,0.6644363284563708,0.8062687886273779,0.8506350816379583,0.7982815888311399,0.7588507715843019,0.719511567638588,0.6135853970630288,0.5170406684285717,0.5009479109340643,0.5759968297341802,0.7467566890047231,0.8473773848356059,0.728120602926109,0.5563654587706147,0.4951445164224208,0.4950325303552716,0.6045637196103567,0.7757890352182432,0.7298833603551874,0.5225265296049346,0.4917231682353853,0.6068165166855048,0.6230511509949962,0.6091784121892089,0.7052615063043318,0.7933515162978493,0.7501293225897069,0.5970701450071392,0.4668952345046918,0.5592170943586211,0.7476090844233483,0.730194367905213,0.5821954526994106,0.5347800684215327,0.5832484490889751,0.5642360219155198,0.5174279947378051,0.5799789870570072,0.5810745210037273,0.491855090875836,0.5768469137590109,0.743516395009117,0.6911878421627221,0.4242280661023558,0.2951022955326295,0.4946293086700274,0.7755952843974419,0.9178288173630704,0.7679509876750324,0.4395706298439041,0.3396883120748537,0.3786319619191778,0.40945867242863,0.60733621636767,0.7746782490659595,0.6748447634999402,0.5089662707134346,0.5112976374305357,0.57227569526875,0.4705574252210652,0.2464031740461565,0.1239284679855282,0.0669361040523202,0.0,0.0979114108828972,0.0628042684793582,0.0893676569681209,0.2752881555415356,0.0226306620648619,0.7192818138125043
0.66031543597275,0.2897151102979732,0.0831456287559969,0.00695142097684,0.0,0.0322725004623156,0.1850369972171893,0.3666015867859649,0.4319068801714238,0.4907963535728419,0.5871530948463206,0.6318362305386914,0.6337988042965179,0.6247037418079323,0.6454769745172535,0.6473211885857391,0.6458463254601824,0.6523961773142852,0.64330375988422,0.6379938618644455,0.6280294066515952,0.6262302800372318,0.6259489239642302,0.6275021406173232,0.6234348087078664,0.6110468802979644,0.6121407218995274,0.6018099956625433,0.5937550310940668,0.5821513001666566,0.590613635218483,0.581431544944637,0.5747588394079199,0.5751225665076419,0.5585618792074535,0.5807241815193661,0.5808676132884777,0.5779576965039824,0.590875975784331,0.5918415540939137,0.6130358390759313,0.6091198280516906,0.6290896576326862,0.6589718681954735,0.6597503961031275,0.6595825518387706,0.6626124690782874,0.6717098309336029,0.6765266595246645,0.6800383775256604,0.6701236447250891,0.6762123922491475,0.6744270883890143,0.6810794613803918,0.6822149081117128,0.6816738357144762,0.6843522914382749,0.6882085202388365,0.6728207264995721,0.6729799684638608,0.68827823229118,0.6923476852303978,0.687206395963605,0.701071079051107,0.6961116885753962,0.7085217730589292,0.7024357076376512,0.7230330964893811,0.7246806399582797,0.717410861265607,0.7390054586520328,0.7331555766150536,0.7522942854376948,0.751320949142132,0.7582232405787678,0.7551612915281318,0.7444735438581584,0.7570104360892919,0.73971375146206,0.7498896212178507,0.7480503212507742,0.7312851988085124,0.7273441550435383,0.7405993862913487,0.7313691810966354,0.728066265690416,0.7219378124564505,0.7245176894701625,0.7167955938049015,0.7099194792193338,0.7053112568556879,0.7184007232350877,0.7341281441602625,0.7603022513304872,0.7714383066694979,0.7883995014301544,0.8139078347331639,0.8345460247230769,0.8580693593778741,0.9094182933276632,0.9538008738577052,0.9994895432085398,1.0,0.988874182645446,0.9823758326394092,0.9343734869837452,0.9018952105738348,0.8550881160013797,0.8219369191324786,0.7537132838520366,0.6792620234276425,0.6467568340349287,0.6292112447622121,0.5985094307638025,0.6054256121588573,0.6067583417035332,0.5979881393458201,0.578754552960851,0.590706140964687,0.5928168196414306,0.6072129239490192,0.593339309260924,0.5932164370561799,0.6021368850320897,0.5940232577633705,0.6126382377868435,0.624102988812863,0.648436701079473,0.7025020283371544,0.7794635604300557,0.803348533937345,0.8272413801694732,0.8427234467972795,0.840652607091432,0.7999776160877781,0.7612382073449852,0.8077587711219077,0.8810460617181634,0.7332271162935048,0.2957709125256839
0.807581692259746,0.7334153386382993,0.6590434817426023,0.5783530626440725,0.5717297091578977,0.6004251509918911,0.6528889176840582,0.7295339343714717,0.7679292280661405,0.7730846343917909,0.8130976938619985,0.8637110963780279,0.8818848846100282,0.8713818538388551,0.8726816828899241,0.8744559403214578,0.8633678429823414,0.872201674383257,0.8763893931229961,0.8778995946126553,0.8738573520320393,0.865242786395849,0.8699291301702217,0.874405309500166,0.8799999322653355,0.8670890854416444,0.8709562221493453,0.8639855814413137,0.8670398811661701,0.8670215335599483,0.8686369422784139,0.8662165415286248,0.8506458548576652,0.8523265800458242,0.8499041560800964,0.8451488086667965,0.8476857533776917,0.8445426632561618,0.8402997735397382,0.8349239087394058,0.8282646936981958,0.8274495341138767,0.8276881441760401,0.828119773660837,0.8231410453498327,0.8115341929229217,0.8124561594002379,0.8180319928972388,0.8229513193781912,0.8158668543062537,0.8126629579108602,0.8225224564258428,0.8300303218931515,0.8217554468597207,0.8323059397976907,0.8395381745530622,0.8450449943685895,0.837616468169294,0.8533735659312016,0.8591589361504521,0.8666207246080443,0.8797331093708223,0.8763400165695292,0.8819905666537902,0.8825076842602737,0.8907731432509283,0.8872978507366579,0.8865771488646865,0.889566491382493,0.8905620648927582,0.8985000633373736,0.8951961307001529,0.8957614231160568,0.9057916621476958,0.8958421542641939,0.8935963803704623,0.895604883348281,0.8943948951694507,0.9000168807221426,0.907850741322077,0.9064837301567108,0.9004270220989679,0.907604236725946,0.913749310788234,0.9118573748819836,0.9094599333261476,0.9182643030893616,0.9250196404265,0.9234110072754298,0.918262103393528,0.9267277452097904,0.926004885661008,0.925157836789956,0.9353880296435296,0.9444703888565148,0.9446336180526896,0.9335933026451324,0.944634716850131,0.947022767154414,0.9382747911214426,0.9486928132079772,0.9580963448202682,0.9470507602272756,0.9551742705557552,0.9498751738794426,0.9478732930995868,0.9398376361435764,0.9471023490822827,0.9532684767758488,0.9434029628175896,0.9414531604143545,0.9524857212112896,0.9535991517771174,0.9459033362721576,0.948712207087862,0.9532026266645685,0.9484892982738766,0.9447659590653454,0.9502718859766424,0.9666736584919652,0.9675444733222044,0.9911113694907498,1.0,0.934513309145139,0.8403455301544074,0.7820139225073167,0.762933649496785,0.7536380164316985,0.7219204131222903,0.5991898337462325,0.4763374097093666,0.3461848317891755,0.1734413313535706,0.0704405424338154,0.0639336026497766,0.0758731608573188,0.0541374137759677,0.0163991211149963,0.0,0.0147532359994329
0.9233270832843916,0.7080631199367198,0.4094717098193856,0.2054401701836785,0.0433563948367198,0.0,0.1539788045545017,0.3470509973901319,0.3941154268435374,0.4791812872777684,0.6447791284255086,0.6675077873278337,0.6391949886704894,0.647379976272107,0.6514537577761058,0.6511015447717352,0.652133090319552,0.6263860761618008,0.6250394711533304,0.6361595661862728,0.6324551180931425,0.6106673245478964,0.6130473382008036,0.6055460376148447,0.5973803801098733,0.5846786438295732,0.5894157546715912,0.5706974738055216,0.5600628034980797,0.5420280141413913,0.5198565105920765,0.5170272219499559,0.4960312710570036,0.4980406392173142,0.4850630076066331,0.4674616869476537,0.4425851710584519,0.450592419993279,0.449101973978396,0.448754332536408,0.4578787356205523,0.462837306589159,0.4787122911793542,0.4903657791067478,0.515595811010557,0.5235269313650658,0.5240944501148216,0.5728739200663358,0.5842702171399071,0.613819289262423,0.6167218489651133,0.6212184432926848,0.6339430231520411,0.6417013908754499,0.6076812993053146,0.6243849239572861,0.6397491939119784,0.6387700876834705,0.6387386925034416,0.6382052742713771,0.655796159430896,0.6702492201411004,0.6640088410441062,0.6540229763043577,0.6847757588357185,0.6827005441612238,0.7088201171142035,0.6974467286841773,0.7068677241752396,0.7471131762065545,0.7458859551512353,0.7630829344197184,0.758270115726891,0.7779443315738915,0.7667192135404958,0.7720847144027098,0.7660486567264185,0.7520448048461033,0.7517712290021957,0.7622789719422842,0.7705200667173774,0.7788538299038457,0.7333818897937059,0.7394273364634566,0.7164028609231219,0.7464428070785034,0.7163378589960556,0.7010845562146707,0.7107089142072472,0.7229197514298782,0.6864586502815931,0.6949688054876141,0.7068948682667755,0.7123170362324432,0.7005119574298063,0.6898942117097749,0.6874201908185059,0.7043765612935796,0.7074715930161154,0.6861705882045651,0.7442843145501433,0.7481255780925112,0.8089051420121625,0.8263302098520586,0.8259556667463186,0.8692089906736624,0.9007463115863934,0.9564890300802203,0.9027388802833108,0.8695154663139086,0.8078099940494146,0.7824242327934847,0.7843444141182059,0.7907418377771493,0.7685701168248542,0.6785601935518402,0.6256715742287442,0.6220027957084839,0.610945833406192,0.6042387512648083,0.601483642396434,0.607673544744333,0.6177353441221726,0.6056097632769329,0.6064565854224951,0.6231067711706632,0.5908570504083688,0.6160079382430392,0.6161377262582417,0.6362967890705923,0.6923869261292513,0.8374379068153269,0.9589901809865736,0.9174755491247372,1.0,0.9987926783556064,0.8872336528051883,0.6200615560116256,0.5454411893188007,0.6459914281289364
0.6897379048547084,0.3002630642580865,0.076987243696371,0.0,0.0879258503141557,0.2242454375285093,0.3814336579821807,0.4383255419878714,0.5175633772353561,0.6177748647149419,0.6380035715532639,0.6514485471217272,0.6518286942592348,0.6402178721856341,0.651809983182088,0.6517613085427002,0.642402423528792,0.6446906908956525,0.6400965668671128,0.6414396018529828,0.6419610573264801,0.6410486922223806,0.6315427560401992,0.6343068765382756,0.6155324911647038,0.621988546980559,0.6118716600979379,0.6082522199631123,0.6041797719832469,0.5943305546532981,0.57993882158405,0.5748401523203941,0.5616006598600949,0.5610297467053316,0.5714016342477877,0.569663282854389,0.5757463712547438,0.5746067128840986,0.5775876682342629,0.5789396853564426,0.5958574091138891,0.6186833319405587,0.6235244119371253,0.644657492755996,0.6708483466251935,0.6857200181930406,0.6795728432505823,0.6905436352528541,0.7030159261737404,0.7118915989910514,0.7089729572312294,0.7144269995738488,0.7209575187334498,0.7164158857675191,0.7077402006956816,0.7127357682375023,0.7114044787222471,0.7330170206520127,0.7397500432642454,0.7282428757684052,0.7417739402528649,0.725342175120809,0.7447438747218704,0.7420722603019007,0.7449901705399038,0.7510505034596902,0.7583036187059347,0.7719754180309242,0.7807923072957572,0.7822154031931471,0.7820206810025407,0.7961215274062137,0.8109358793632764,0.8039150187495203,0.8041867673674277,0.8124601184324844,0.8131178799120674,0.8010261661399962,0.7969080370410004,0.7939854616380064,0.7957287003471097,0.7945623492289889,0.7775692801421966,0.7710730402557261,0.7728613282936317,0.7722478346765101,0.7726708868369936,0.7633023012419139,0.767988231810142,0.763362743566988,0.768507246776861,0.7519963818108415,0.7556989252190911,0.7622797273262268,0.7559861755453218,0.7790299982870762,0.8066139057145735,0.8223491684883025,0.8524565961620172,0.8899731629333373,0.9107760490145772,0.9449116646833808,0.9664771894386588,0.9859948154749998,0.9703538927044192,0.960735081902084,0.9418057928839424,0.9084505879462852,0.87362028651329,0.8403097070849881,0.7817620849673228,0.7197840966053732,0.6903126292334206,0.6795158434738044,0.6576643949944307,0.6630151627788086,0.6666899357722897,0.672501280281348,0.6577481678710702,0.6652081022808356,0.6623987906556288,0.6724716444307982,0.6632325868817263,0.6665715546503991,0.6678650783867459,0.68128234656192,0.6733552701648882,0.6894688546589826,0.7550842720067539,0.8275477000122136,0.8469042258170515,0.8542545406660589,0.8728547330958432,0.8901982914120756,0.8822017637695315,0.8603939371824585,0.92921291970572,1.0,0.8727246567629673,0.4303425482079653
0.9743553482859616,1.0,0.9560023910754564,0.8610615883983068,0.7454005791292985,0.6304785274208721,0.5935916572244017,0.538372819371252,0.4709966856313668,0.4473701677427285,0.4831628102585755,0.5612099449765369,0.6304411614386805,0.6765875314667935,0.6962497361065088,0.6916720124584451,0.7183956628603649,0.7826224231969727,0.8308298932534126,0.8348591627160586,0.8279493989241162,0.8316261567888104,0.8333078147213819,0.8329299409546664,0.8271878557551496,0.8201445167609112,0.8215463189864353,0.8240073830049919,0.8231981987097947,0.8274639534852647,0.8167161645118706,0.81299819583703,0.8242342813011085,0.8031701809039989,0.8036312228757576,0.8003222156230292,0.7950264561576039,0.8133190886521791,0.8081114779638914,0.8027372452592704,0.7942201730205984,0.7930189214973651,0.8011273780478028,0.7940787027263204,0.7894685502426484,0.7927018517974154,0.780986453912839,0.7754347962608631,0.7828714300889354,0.7769976837500401,0.778768225353016,0.7737243989909247,0.7594230635228378,0.7686500110902075,0.7682260828986328,0.7559091359592629,0.7586053775146712,0.7538654487258287,0.7443593688035136,0.7485475004943828,0.7476564672945772,0.7456546303954528,0.7417947410870809,0.7378171597243749,0.7508414708287459,0.7482748562615579,0.7470683664525232,0.7465846468437002,0.7376517183808832,0.743048218718934,0.7420604205359911,0.7471373963132409,0.7558856679778944,0.7538419012423705,0.7634386324037157,0.7755423295181239,0.7710696805753012,0.7776400489438916,0.7923739992089877,0.7901203738468856,0.7942552324400595,0.8062474178522945,0.795629664902032,0.8045564518284144,0.8297383579544847,0.8217630991384379,0.8220166272942032,0.8286461295175893,0.8174043970668405,0.8328954360455794,0.8381164685572575,0.8342815733530374,0.8393879658555227,0.8331189371305492,0.84834426208699,0.8515440074130688,0.8490192114461631,0.848138283195797,0.8400710407959295,0.8410757284128443,0.8480249877072399,0.8566013591516927,0.8514427842166306,0.8447886012709646,0.8545083797874956,0.8551828431149854,0.8537899214065056,0.851477210625755,0.846807989425554,0.8531563749318554,0.8446261213803166,0.8511426738490235,0.8768167764107279,0.8671637930112986,0.8555819285737192,0.8610275461379355,0.8596961066022811,0.8507514550886682,0.8320762271381386,0.8198167760766855,0.7850136406211585,0.7818175263359024,0.7835588041549529,0.7397259808486815,0.7100034322855983,0.6717182138619576,0.6355333571394213,0.5961525314400701,0.5542395157454223,0.5436030714530042,0.5094134315774284,0.4310298827644814,0.3702645482143429,0.3050670389680495,0.2297517697566032,0.1990845568192749,0.0888836202980192,0.0928550670222658,0.0,0.2784386658079549
0.5308261090229057,0.3689681214051776,0.2198944833472267,0.0643206411517406,0.0,0.0483736156648128,0.1358763566387611,0.2248323747140155,0.3004920640307469,0.3288768539944462,0.3407223985793105,0.3767551116401141,0.4821717248888811,0.5358081900251717,0.5089363421452121,0.4977081663556546,0.5039269289335133,0.5202610643690871,0.5015096996989441,0.5069088047179753,0.5097892869525585,0.510207723694802,0.496996808620504,0.4929260600318916,0.4884532893000322,0.4954123468523914,0.4906855215315989,0.4888495251920144,0.4713195438314683,0.4700098942636372,0.4893267596271631,0.4788788765897441,0.4751321442777555,0.4734250921278032,0.4647587532423433,0.4558273047972005,0.4587723880275787,0.455052089058411,0.4389318466487856,0.4436110169984759,0.4396665473274503,0.4325174856438114,0.4424682855561534,0.436453259983203,0.4163664206767541,0.4188573473341912,0.4117094041440901,0.4074664977946399,0.4059658617158409,0.396313621466354,0.3921243463003575,0.383767218526614,0.3851208267186268,0.3740502917905334,0.3665354195658723,0.3638453694816263,0.3611116167137703,0.3686653171175149,0.3468443375092974,0.3528094297414711,0.345000847429205,0.3335454094582141,0.3668938161400712,0.3692300948618801,0.3556843403824796,0.3589012856825615,0.3592439984179549,0.3577191410541341,0.3577783414379519,0.3819452773131053,0.3824032231360704,0.3817639849667821,0.4083597453477732,0.4183875767244187,0.4353071730602671,0.4384045907894168,0.4380597706991855,0.4477355358759046,0.4555048013952684,0.4755529355070643,0.4817401908033639,0.495110627653036,0.4995108949081754,0.504323106823379,0.5159870968059315,0.5171325086440605,0.5169442133315855,0.5199834986471215,0.530644339696426,0.5287147438953936,0.5395312195810892,0.5420061964874384,0.533521183187337,0.5393936398900865,0.5393928006044453,0.5566338898755527,0.5518993117159723,0.5469856449581088,0.5715185642172678,0.5686160269520713,0.5623813428763047,0.5628617632729866,0.5636114879956061,0.5865327012775656,0.5791466269907815,0.5992041694115186,0.6031791458691408,0.6084606407774691,0.6177715360778651,0.6141307315855163,0.6143982293698853,0.6214867112497415,0.6371284511550216,0.6346857776051269,0.6385897953701947,0.6495840284308094,0.6527550573275305,0.6463866659083735,0.6588998198411049,0.6596824046740201,0.6430224932872938,0.6561469097552547,0.6611996685802269,0.6590707017215727,0.6785505413990689,0.7092882229544192,0.7418105415539629,0.805591297674873,0.8512044446972089,0.8462846353656224,0.8228171784253799,0.8033205231199263,0.7872507126366071,0.7978974747939256,0.8786559490278065,0.9821021256728704,1.0,0.9069841495339108,0.8518014842492344,0.8256515374433246
0.6587545528869022,0.3248052934614898,0.084492172780268,0.0,0.089651287915294,0.2092278761557233,0.3531597751105557,0.4242809243309354,0.4808670723988279,0.582907224724732,0.6288668928659735,0.602632595112079,0.6131116185959269,0.6101709270336209,0.6023122921786835,0.622214039056494,0.6217229063286239,0.6173512015944469,0.6174972979398684,0.6129200965612862,0.6196111675438618,0.6040144008986774,0.6000365959995504,0.6048421671085056,0.593846714648818,0.5851259109369464,0.5927068076532149,0.5736300395672653,0.5762086169266653,0.5721490514149329,0.5481130087092507,0.5380807991019231,0.5427300121652113,0.5350037695020768,0.525487114968938,0.5313315784846228,0.5236386331940552,0.5419497774505485,0.5443000179095123,0.5429398595579078,0.5619813495317701,0.5633530358811825,0.5789362844090569,0.5968683116820422,0.6124243801489067,0.6167194238539946,0.6268086574982138,0.6458067744355722,0.646837634451098,0.6551738807899347,0.6818987322141473,0.6646223583313189,0.6800608747883721,0.6903473671516285,0.6822599492217806,0.6841583958154775,0.6898846396667431,0.6988501924334564,0.7003678375552216,0.7094532052086165,0.7119491683770544,0.7070768508799237,0.7059423076706617,0.7140114168137554,0.7185151010205296,0.7098550498883721,0.7263629223196171,0.7305060853570854,0.7320685621025468,0.7351897807973261,0.7440873190023052,0.7578679460503461,0.7644321371438406,0.7685199020079541,0.7619584139125894,0.7574141112573417,0.7697289113305306,0.7791477279620139,0.7590819658466104,0.7664756271799861,0.7739429964114691,0.766820177366704,0.7584447023800517,0.7543587697390778,0.7567075328508855,0.754359007365287,0.7523482331428281,0.7451902829390261,0.7546287678293134,0.7466724201391465,0.7443541638552778,0.7374357393070395,0.7385492604134372,0.7378356345138813,0.7533999167182671,0.7569960126322094,0.774462331618381,0.7991251384641669,0.8103788765433042,0.8376280727101183,0.8989898509846044,0.9414605957589226,0.986632916032528,1.0000000000000002,0.9990093957403128,0.9714272305378197,0.9420359638513006,0.9041890655424364,0.8615772927396065,0.8207876142591235,0.7638302346458764,0.714214660699164,0.6874787798231837,0.6678851351799225,0.659958722138796,0.6610576698799151,0.6562479981555205,0.6601299021192633,0.6618175531604225,0.6668769345431094,0.6697211817564105,0.6667017333643833,0.6601502097801696,0.6620211503584843,0.6637809819240245,0.6585927263117625,0.6600371137745537,0.674021669134019,0.6870662369613562,0.7460568666407947,0.8136089639985038,0.8158186438647228,0.8250411484174534,0.8423841143877543,0.8741034613258969,0.858588861759202,0.8526966228688213,0.8780061278796703,0.980187539606974,0.8764307286457521
0.6076155052446515,0.3239920875010521,0.1156245914614798,0.0,0.0953420365962187,0.2136995132170414,0.3606026387572275,0.3690437146210669,0.4777320064141748,0.5886866989700121,0.5995111927672369,0.5860796291043616,0.5748472202404965,0.5766958439613887,0.5842149146195433,0.5999597903285298,0.5860766394827812,0.5702884265739827,0.5684809204107407,0.5607505831609046,0.5666803325700358,0.574437837451894,0.557070818684639,0.5534032113461014,0.5473226953699233,0.5501801431698745,0.5200640120501614,0.5248691055510278,0.5165548480883964,0.5071973194077711,0.4936562922529283,0.4846177238525126,0.4866579230496359,0.47730521782217,0.4881008217946007,0.4711519658797657,0.4567200232852282,0.4880126928069918,0.4929808167261988,0.4943617871264989,0.4960449818364481,0.5090411443017114,0.5172965254276508,0.5415873337499102,0.5662989760472208,0.557001295617607,0.5978448226821949,0.5918987066956145,0.6004900303343981,0.6365467332605284,0.6437945693926219,0.6326117411288479,0.611294708243388,0.6320596133498275,0.6581512669223293,0.6422628179778996,0.6260230879888316,0.6373167028286104,0.6671412997111394,0.6789903103918375,0.6899439374537673,0.6786506197702246,0.6659689699279365,0.7060308284983468,0.7042942359619823,0.6793576152007005,0.6860647942770138,0.7250179939593225,0.7238535913522872,0.7168421768260524,0.7254726610598702,0.7424582034567675,0.7662672246571247,0.7675739585342933,0.7463366259065173,0.7512527130077055,0.7574429600806386,0.747634801355735,0.7463493707897291,0.7605549328682197,0.7395234966771611,0.7563776878089388,0.7463214282530468,0.7122767669184794,0.726021421615463,0.7491277356289292,0.7501181015446557,0.7353627413263665,0.7227500926396878,0.7530911217777612,0.715738758559064,0.7269784945405093,0.7436103225115434,0.7299727442061551,0.7372461405356255,0.7324668651506149,0.7808589223844163,0.7543015064392853,0.7691271153768517,0.864047541451612,0.8883603885877622,0.8858755385895214,0.9344834363225952,0.9750256929326346,1.0,0.981727879455831,0.9666140700128658,0.9383443167039284,0.9157930314367164,0.8714772025593721,0.8452213969104517,0.7911127465101832,0.7236211330882499,0.6729425206752196,0.690779127069572,0.6465212766573974,0.621941689770564,0.6353982621679445,0.6365280058506615,0.658279415220825,0.63965733518923,0.6375847787973081,0.6611802696008233,0.6500106585509193,0.6280941011384219,0.6492228252961518,0.6358678954356128,0.6536189745190825,0.6766184011060515,0.7567094011810958,0.8867226308722442,0.9069949084002766,0.8609609911188209,0.891768967626207,0.9062923227026756,0.8382387671371929,0.7978616949177696,0.808230749993281,0.8960843985440394,0.7199302572671978
