0,1,2,3,4,5,6,7,8,9
78,45,44,44,46,42,43,43,9,46
80,47,46,46,48,45,45,46,10,48
42,53,54,54,55,53,53,54,108,53
47,105,105,107,111,103,100,104,109,108
35,48,52,51,53,47,47,48,111,53
76,49,48,47,113,46,48,48,47,49
70,47,46,48,48,44,45,46,12,48
13,17,17,26,27,26,17,17,30,19
25,41,42,42,45,42,40,42,37,41
42,52,53,53,54,49,49,49,110,52
48,44,43,44,44,43,43,43,10,45
48,19,27,24,26,23,9,9,20,19
27,38,48,48,46,43,17,35,42,38
13,24,30,29,31,32,12,11,31,26
73,47,47,47,48,46,47,46,10,51
75,44,45,45,48,43,44,44,10,47
76,47,47,47,112,45,46,47,45,49
79,49,49,49,113,47,48,49,9,112
36,43,60,59,48,55,43,42,49,44
51,46,44,47,48,43,45,44,11,48
24,36,40,40,41,48,35,35,43,40
68,46,45,47,51,45,46,46,80,47
88,77,76,75,76,13,75,76,14,79
74,9,43,42,11,41,41,42,13,9
71,48,47,47,48,46,47,46,109,50
83,83,45,45,116,43,80,80,9,85
47,48,43,43,48,46,44,43,54,48
25,43,57,47,48,48,37,42,47,43
73,44,22,22,50,12,22,24,46,49
77,46,45,44,112,43,44,44,44,111
76,46,46,46,113,43,47,48,9,112
73,45,41,42,50,42,41,40,46,46
16,13,12,13,24,12,12,12,13,15
29,49,54,50,54,51,48,47,49,47
87,80,80,80,80,15,80,81,22,83
63,81,87,83,86,82,99,98,112,84
24,37,44,43,43,43,34,37,40,36
49,48,47,47,9,45,45,46,11,49
14,26,26,32,31,29,23,25,37,26
39,53,55,55,58,53,53,52,54,53
18,36,41,41,42,38,37,35,37,37
17,37,39,38,42,39,29,32,35,35
89,86,85,83,85,70,82,84,63,88
76,45,44,44,46,43,43,44,10,47
82,48,49,49,10,47,47,47,10,10
74,73,73,74,76,70,70,71,72,76
33,49,54,54,57,50,45,44,50,47
44,45,42,42,53,45,44,42,15,44
77,43,42,44,45,40,43,42,10,44
76,45,45,44,44,43,43,43,10,47
29,47,51,50,51,51,46,47,46,47
70,43,40,38,42,38,42,41,18,42
24,49,50,52,50,50,39,42,44,43
14,33,38,38,38,34,32,25,31,28
75,44,45,44,45,42,44,44,10,47
86,46,46,46,116,44,46,45,10,50
70,47,47,47,113,43,47,48,9,48
26,16,15,16,16,15,16,16,113,17
79,48,48,48,51,47,48,48,11,50
74,44,43,43,46,43,43,44,9,45
80,49,49,49,51,47,48,48,10,51
88,69,67,67,71,58,81,81,19,86
74,46,46,45,47,43,45,45,11,47
47,43,42,42,113,41,42,42,9,44
101,80,79,79,79,75,78,79,74,81
79,44,44,44,44,41,44,44,9,81
38,49,50,50,50,54,41,42,51,43
68,46,47,44,47,42,45,44,41,46
23,27,13,13,15,14,15,15,112,29
78,47,47,9,10,44,46,45,12,10
74,46,47,47,47,44,46,46,9,49
18,29,30,35,35,41,23,26,37,30
14,27,32,32,33,41,22,26,34,27
71,45,43,41,45,41,43,43,41,47
77,46,45,45,46,43,46,46,10,47
72,47,46,46,48,43,44,45,45,47
70,39,38,36,111,36,38,39,38,41
23,35,52,42,42,46,30,34,41,38
86,47,47,47,50,46,46,47,10,49
50,16,14,14,114,14,15,15,113,112
75,57,58,57,59,47,61,62,44,60
49,42,40,40,43,40,41,42,14,44
68,43,40,39,26,26,41,42,24,49
31,45,48,47,49,44,44,44,41,43
82,9,9,9,13,10,8,8,17,10
33,54,54,54,54,51,51,51,49,51
74,47,45,44,48,44,44,45,15,49
107,46,45,45,47,44,45,45,43,47
13,26,31,32,35,39,27,26,37,32
68,49,50,49,51,45,49,47,45,52
30,45,47,46,47,44,44,45,42,43
70,45,44,44,48,44,44,45,44,46
73,10,11,10,18,12,10,10,22,15
70,54,53,52,55,48,57,55,9,111
28,30,16,32,36,28,28,29,31,33
69,51,51,51,55,48,56,52,45,53
22,32,43,43,40,40,31,32,37,33
32,54,54,54,54,52,51,51,50,51
17,28,33,34,35,38,16,17,37,32
71,46,47,45,47,44,46,45,10,47
75,47,48,47,47,44,46,45,8,50
72,45,45,46,46,43,44,45,10,45
73,46,46,46,46,44,44,45,9,49
55,109,110,109,111,109,65,65,116,70
79,52,51,50,54,49,51,51,10,53
34,47,54,54,54,49,45,47,48,45
48,43,40,40,115,35,40,41,111,114
40,50,52,51,54,50,50,49,109,49
76,44,44,44,45,42,43,44,9,46
58,37,38,38,38,24,38,38,17,40
26,38,19,19,46,44,21,19,41,43
74,45,45,45,46,42,45,45,42,48
76,49,49,48,50,46,48,48,9,49
67,49,43,43,43,37,46,44,40,44
56,21,21,34,27,18,17,17,34,39
62,15,13,16,16,14,14,13,30,13
78,46,45,45,46,43,44,45,9,80
42,54,61,61,61,57,54,53,55,54
79,49,48,47,50,46,48,47,10,49
70,44,42,43,44,41,43,42,11,49
13,20,25,25,29,25,12,12,35,25
35,48,53,52,53,49,48,46,49,47
78,45,45,45,49,43,44,45,9,47
74,64,57,57,60,52,67,67,50,73
77,46,46,46,47,44,44,45,109,48
86,76,74,74,74,69,74,75,54,79
72,45,43,43,47,41,44,43,10,47
18,31,48,42,39,42,31,30,38,32
79,46,46,46,10,45,46,46,10,48
75,46,45,45,46,44,44,44,9,46
74,51,45,44,48,45,48,47,44,47
76,46,45,45,46,44,45,45,10,47
72,47,47,47,47,45,46,46,9,47
81,49,48,48,50,46,46,47,10,50
74,71,72,72,72,68,69,70,67,74
76,45,45,45,46,43,44,45,9,47
23,39,46,41,45,40,39,37,40,39
78,44,44,45,46,42,44,43,10,47
49,45,46,46,47,44,44,44,13,48
72,27,16,17,43,34,16,18,33,35
45,58,63,62,66,60,56,58,61,59
40,48,54,50,53,48,46,47,109,48
81,48,49,47,50,47,47,47,10,50
21,35,35,33,35,32,29,33,113,33
30,47,57,56,50,50,45,46,50,46
41,54,60,59,59,54,53,58,54,54
72,44,44,43,45,42,43,43,10,45
62,49,50,50,54,45,54,55,27,60
47,43,42,42,44,39,41,41,15,45
76,45,44,44,46,43,45,45,9,46
47,9,9,9,13,9,9,9,15,11
46,61,67,67,67,65,63,61,74,61
38,54,55,55,59,54,51,52,54,56
69,62,53,49,53,47,62,60,46,67
70,53,52,51,53,47,61,56,46,57
76,44,44,44,44,43,43,44,12,47
19,29,29,32,35,40,22,23,34,32
80,46,46,46,48,45,45,46,10,48
77,44,43,43,44,42,42,43,9,45
55,11,11,11,13,11,11,11,17,12
41,41,13,13,112,13,13,13,111,110
52,48,48,47,49,46,46,46,46,49
75,47,47,45,47,44,44,46,11,50
50,45,45,47,51,44,45,45,12,48
81,43,42,42,8,41,40,41,13,43
89,76,78,74,73,69,79,76,15,81
69,42,40,40,80,40,40,42,20,42
94,88,88,80,84,75,84,85,57,90
77,10,32,29,26,18,37,10,17,14
26,38,46,45,47,46,34,32,41,34
71,43,43,43,44,41,43,42,11,45
79,43,43,43,44,42,42,42,12,44
48,47,42,44,54,43,43,45,11,49
53,47,47,47,46,44,44,45,42,50
76,47,48,48,113,44,46,46,45,112
76,45,45,45,46,42,44,44,9,47
79,44,43,43,44,42,44,43,10,47
76,47,47,46,49,44,44,45,44,49
80,45,45,45,48,43,44,45,9,47
78,49,49,49,50,46,49,49,10,50
73,17,15,15,53,15,13,16,12,49
30,47,54,52,48,48,47,49,47,42
46,45,35,35,52,20,39,40,16,50
73,67,63,59,62,54,64,65,10,70
73,47,48,47,49,44,47,46,44,111
106,48,57,47,51,47,47,46,47,107
19,36,46,45,44,40,33,32,37,36
45,17,16,17,17,16,24,16,18,45
40,51,56,53,56,50,50,50,109,49
74,49,47,47,111,45,47,47,109,50
83,83,50,50,10,48,52,51,10,86
47,10,10,10,11,10,43,10,14,11
74,44,44,43,45,43,44,45,11,47
16,28,40,35,37,36,28,28,35,30
9,45,46,45,48,44,44,45,16,48
60,17,16,21,25,17,16,16,29,22
30,48,54,50,50,48,48,48,46,43
39,50,50,50,52,49,50,50,112,49
71,65,61,61,64,57,63,64,49,68
41,44,48,45,52,44,44,44,113,47
118,10,19,18,14,15,23,6,9,11
76,46,47,47,51,44,46,47,9,49
77,49,47,47,49,46,47,47,10,84
32,47,55,51,55,51,51,48,48,47
21,38,43,43,39,39,26,36,39,35
77,46,47,46,49,45,46,45,9,49
70,10,9,9,16,9,41,9,19,11
72,45,44,46,50,45,41,44,47,46
73,44,43,43,46,42,43,41,16,45
40,53,54,54,58,51,46,46,111,48
82,44,43,43,44,41,43,42,9,84
11,23,24,24,25,23,20,21,21,23
72,48,49,48,15,48,36,36,42,46
88,55,54,52,56,56,53,53,61,56
65,52,53,53,56,51,51,51,45,56
70,58,55,54,57,50,59,60,46,63
37,52,54,54,57,52,52,52,53,52
49,10,9,9,13,9,9,9,17,11
46,57,60,57,60,57,57,58,108,57
54,60,64,65,65,61,60,60,69,60
74,46,46,45,48,44,45,46,9,48
9,14,43,43,46,39,43,45,19,15
20,30,14,36,39,31,26,29,32,30
42,49,38,54,54,47,41,39,11,51
32,48,55,53,53,52,46,48,50,48
40,90,89,91,97,89,85,88,90,91
80,41,40,40,42,38,40,40,9,43
47,43,42,42,45,42,42,43,9,44
43,56,58,57,59,55,55,56,111,52
50,44,43,43,45,41,43,43,10,45
12,24,24,30,31,32,21,24,34,25
47,60,62,58,62,59,59,59,109,60
12,59,59,60,60,58,58,58,20,15
73,46,46,46,46,45,45,46,11,48
39,57,59,58,59,57,57,59,57,53
74,46,46,45,48,43,46,45,44,47
10,10,10,10,14,13,9,9,19,12
20,37,46,42,45,45,34,45,38,32
21,16,14,14,16,13,14,14,110,16
13,25,43,30,33,36,23,24,35,29
17,39,50,45,44,44,32,32,40,38
81,47,47,46,49,45,46,46,9,49
91,87,86,83,87,77,83,85,68,88
76,46,46,45,48,43,45,45,9,48
81,45,46,46,47,44,45,46,10,47
40,19,18,18,18,17,17,17,20,23
55,37,23,23,42,18,24,25,35,39
73,44,43,43,45,41,43,43,13,45
22,105,15,15,110,15,15,15,109,108
39,51,58,57,58,56,47,51,54,51
68,45,44,44,10,42,44,44,13,10
56,12,10,11,18,14,10,10,21,14
38,52,52,50,54,49,49,47,50,52
73,41,38,36,46,46,36,39,46,42
14,31,32,32,33,40,28,28,38,32
73,43,42,43,46,41,41,42,9,44
67,41,39,39,41,39,38,39,40,39
46,8,42,8,10,42,43,42,12,9
74,47,47,47,113,44,45,45,9,49
77,46,45,44,47,43,43,44,9,46
72,51,50,49,52,46,51,51,45,51
69,44,43,43,44,41,41,43,8,45
74,45,45,45,46,42,43,44,10,45
83,70,68,68,68,64,68,68,23,73
48,9,42,9,10,9,41,42,13,10
24,25,15,23,33,24,22,24,38,26
78,46,47,47,113,46,47,47,8,48
71,46,45,45,45,43,44,45,10,47
31,45,57,53,47,48,36,39,49,43
68,48,54,46,46,45,51,49,14,47
39,50,52,51,50,49,49,49,109,45
80,49,47,48,49,45,48,47,10,50
48,58,58,58,58,57,56,57,63,56
78,46,43,43,46,42,44,44,9,45
73,74,56,56,58,54,70,66,13,77
88,58,58,57,61,60,56,55,28,59
71,46,47,47,49,45,45,46,46,49
68,46,46,47,47,44,45,44,41,48
35,18,17,18,19,16,16,17,16,21
60,59,64,60,11,99,99,100,106,64
66,14,15,14,14,14,13,14,27,14
77,44,45,45,47,43,43,44,9,46
48,48,47,50,55,45,44,47,14,51
74,45,44,44,45,42,42,43,10,45
71,50,51,48,50,46,47,48,48,110
47,57,57,57,60,57,55,54,109,53
34,43,45,45,47,42,41,42,111,45
71,47,47,45,49,43,45,44,45,48
17,39,39,39,45,39,16,39,114,43
87,69,69,67,66,61,68,65,16,72
75,46,46,45,46,43,43,44,10,46
77,45,46,46,46,43,44,44,9,47
75,51,48,48,52,47,48,49,9,51
63,12,12,12,14,13,12,12,23,12
87,71,73,71,75,60,76,77,18,74
46,31,30,30,109,28,30,31,107,109
26,40,40,39,43,40,37,36,39,41
69,8,39,8,13,20,40,8,14,12
72,45,45,45,113,43,45,44,42,111
75,42,42,42,42,40,41,42,9,44
49,45,44,43,46,42,43,44,11,46
13,19,20,21,27,22,12,12,29,19
61,20,18,20,24,15,19,18,31,25
53,44,39,12,15,11,43,42,17,46
24,42,54,51,46,50,38,42,45,42
27,44,45,45,49,42,42,42,113,47
43,61,62,62,63,61,58,61,56,58
60,14,13,13,14,13,13,13,20,14
85,12,78,12,12,12,79,80,19,12
70,47,48,46,50,44,47,45,46,50
79,47,47,47,49,46,46,47,10,49
46,80,42,81,84,23,42,41,18,82
76,46,46,46,46,44,45,46,46,48
75,48,46,46,49,45,45,46,10,48
73,47,46,46,10,45,45,46,12,10
28,45,56,54,53,50,46,51,48,42
68,46,45,44,48,43,46,45,9,47
53,37,38,35,41,30,34,35,21,40
20,32,32,39,43,32,35,33,41,32
30,42,55,50,49,50,42,42,50,42
74,46,45,43,47,42,43,44,11,46
24,18,15,16,16,15,16,16,109,22
13,18,26,31,34,37,14,14,33,22
74,60,60,58,61,54,60,61,52,64
71,46,47,47,47,42,46,45,43,49
62,37,34,31,38,24,35,34,41,37
17,33,33,34,39,41,29,27,36,34
26,39,47,45,47,44,36,39,42,40
75,45,44,46,45,42,44,44,10,48
48,46,46,43,47,43,43,42,109,47
69,52,51,52,53,48,50,50,46,54
68,9,9,9,14,9,40,41,16,9
43,17,18,17,24,19,11,11,17,19
30,46,58,55,50,52,42,43,43,43
79,51,49,49,51,48,49,49,11,53
51,12,12,13,12,15,46,48,15,12
79,49,50,48,52,47,47,48,10,52
69,46,46,46,48,45,45,45,18,48
79,45,45,45,46,41,44,45,10,45
15,31,33,34,37,40,24,23,37,27
19,87,86,36,44,41,84,85,45,43
36,48,54,52,54,48,47,47,110,50
63,73,76,75,79,73,62,62,73,73
86,62,56,56,60,55,66,67,17,67
35,54,55,55,53,52,54,53,49,46
59,11,11,11,14,11,11,11,21,14
78,42,42,42,44,41,42,42,10,44
70,78,82,81,80,78,78,78,78,78
76,81,46,45,85,43,43,44,10,82
27,49,54,50,54,50,39,40,50,42
80,47,47,47,48,44,44,45,11,48
50,57,57,57,57,56,56,56,112,56
70,49,87,96,100,91,66,48,102,74
34,36,32,33,34,33,33,31,0,32
47,43,42,42,44,40,43,42,10,44
31,50,59,55,58,52,46,45,52,46
51,43,41,41,44,39,43,43,41,43
41,48,55,54,56,50,48,51,49,49
42,42,39,39,52,40,39,39,53,44
39,50,51,51,54,52,46,47,54,51
68,45,43,44,50,42,42,43,11,48
74,43,43,43,44,42,42,43,11,44
39,38,26,24,26,23,37,37,47,43
17,30,45,36,35,38,26,28,36,29
26,45,53,52,53,49,44,44,49,45
72,44,43,43,44,42,43,43,10,45
26,43,49,48,49,44,43,42,44,44
79,48,48,48,49,47,49,48,10,49
70,70,70,75,79,70,66,68,73,76
34,27,26,27,26,23,24,26,14,30
68,72,73,74,77,74,69,70,77,74
46,43,43,43,10,42,42,43,12,45
75,49,50,50,113,46,47,48,46,112
19,40,42,42,44,48,35,37,44,41
80,46,46,46,47,44,45,45,10,47
69,46,47,47,47,44,46,47,46,110
69,45,44,44,48,44,44,43,13,46
17,35,43,40,40,39,35,31,36,35
21,41,46,46,46,41,38,39,41,44
78,44,43,45,45,40,40,42,12,43
35,47,54,52,53,51,52,51,46,47
44,13,11,11,22,13,13,11,18,15
29,50,51,51,49,51,50,49,45,38
64,16,16,14,24,24,14,16,33,20
54,46,46,44,46,44,45,45,10,46
74,45,45,45,46,43,44,43,9,46
73,44,44,44,45,42,42,42,12,46
29,41,60,45,46,50,41,41,46,40
90,78,77,77,77,75,76,77,25,79
80,50,50,50,116,46,49,50,10,55
57,13,12,18,22,13,12,12,23,15
53,74,75,75,71,71,76,75,67,67
84,72,73,73,76,14,74,76,16,75
40,52,56,57,56,56,37,37,62,48
80,45,45,44,47,42,44,45,9,46
38,49,14,15,57,11,14,13,15,44
36,49,55,54,54,51,51,54,113,47
68,54,54,53,55,50,54,56,47,57
103,103,104,104,108,100,100,101,110,107
78,47,46,44,47,44,45,46,44,48
34,48,14,49,47,13,14,15,41,43
64,35,35,35,13,17,39,40,15,13
50,45,46,46,47,45,45,46,9,48
33,47,57,55,55,51,45,46,51,45
70,74,76,75,79,71,71,69,72,76
70,48,47,47,50,45,45,46,44,49
76,43,42,42,43,40,41,41,9,79
53,46,45,44,47,43,44,45,12,47
76,45,45,45,46,43,44,45,9,45
73,48,48,48,48,46,46,46,13,50
83,11,11,12,16,11,11,11,20,14
47,46,44,43,46,43,44,44,10,45
49,18,18,18,21,13,14,18,17,20
88,74,71,70,76,71,71,72,24,74
16,21,22,23,29,23,17,14,31,23
72,60,58,58,59,52,60,61,52,62
70,47,48,47,49,44,47,48,10,49
36,46,49,50,49,50,48,48,51,41
74,46,46,46,47,44,45,45,9,48
36,47,55,54,52,48,52,52,113,45
69,46,44,42,46,43,43,42,11,46
71,46,45,53,46,46,43,44,15,46
74,9,9,9,9,9,40,40,13,9
48,61,63,61,64,58,54,58,109,63
74,49,46,46,48,46,46,47,12,48
78,46,46,43,47,43,43,44,9,47
81,9,45,9,11,45,45,45,13,9
15,28,42,39,39,33,22,25,34,29
79,44,45,44,46,44,44,45,10,45
70,48,48,48,112,45,47,48,10,112
71,49,52,48,111,45,47,49,45,110
51,47,47,47,49,44,46,47,9,48
74,48,46,46,47,45,46,47,9,48
71,49,50,47,51,44,48,47,43,52
14,28,28,29,33,35,13,13,34,28
92,11,11,11,17,13,9,9,23,12
24,35,46,41,43,45,31,32,42,36
71,25,22,22,110,25,20,22,41,110
75,46,45,45,49,44,44,46,8,48
15,41,46,44,48,43,37,41,44,41
71,51,51,51,55,48,50,51,44,53
99,110,12,112,116,108,13,17,114,113
30,40,46,41,46,46,40,39,112,40
25,16,14,15,16,14,15,15,114,24
49,61,61,61,61,61,61,61,109,60
74,49,49,49,116,47,48,49,9,81
77,45,44,44,46,42,43,44,110,46
74,47,46,46,46,44,44,45,9,49
16,84,86,85,87,21,11,13,83,86
15,27,27,30,34,36,13,13,29,29
99,110,111,112,115,107,105,108,113,109
36,47,57,55,53,54,53,45,49,45
50,45,43,43,44,42,42,43,9,45
75,44,45,45,46,42,43,44,9,47
42,41,41,18,22,14,37,41,20,45
44,44,39,37,108,20,39,38,13,43
72,10,10,10,13,10,44,44,16,11
63,19,16,17,23,19,18,17,36,22
80,49,48,48,51,46,47,48,10,50
24,35,36,36,38,44,30,30,38,36
40,15,14,14,14,14,14,16,15,25
58,14,12,20,22,28,11,12,27,18
67,77,78,78,82,75,74,75,77,78
52,60,60,60,62,58,56,14,106,61
82,50,50,50,53,48,50,48,10,52
22,24,20,32,36,35,21,18,38,23
30,42,42,41,114,39,39,40,113,111
72,45,44,44,48,43,43,44,44,45
71,43,38,37,51,24,39,39,20,45
45,44,39,39,43,40,40,42,17,47
83,9,9,9,9,9,42,43,10,9
73,42,42,40,43,40,41,41,13,42
44,57,64,63,60,58,57,60,52,54
48,17,15,15,15,15,15,15,108,108
79,47,46,46,48,46,46,46,10,48
70,48,48,47,111,44,47,48,44,111
67,45,45,45,10,43,45,45,11,79
28,50,54,52,52,49,46,46,49,43
90,44,43,42,48,42,43,43,18,45
67,50,50,50,51,47,49,49,47,52
84,49,49,49,49,46,47,47,10,51
27,40,45,45,45,39,33,32,40,35
59,14,13,13,14,13,53,54,21,14
76,46,45,45,48,43,45,45,9,46
70,49,50,50,52,47,49,49,9,52
23,35,46,40,40,41,37,35,38,36
74,47,46,46,48,44,46,45,109,49
56,10,10,11,15,11,10,10,24,13
69,42,41,43,46,28,43,41,47,74
84,77,74,73,77,72,74,75,18,80
76,45,45,45,46,43,45,45,9,46
42,64,64,64,71,63,61,62,74,67
76,46,45,45,45,44,45,45,10,47
71,46,27,24,27,19,41,37,19,42
76,45,46,46,47,43,45,46,9,48
72,48,49,46,49,44,45,44,45,47
69,109,110,110,113,49,54,53,109,111
77,44,44,45,46,42,42,43,11,45
68,77,79,78,82,76,75,76,19,76
75,44,43,44,113,42,43,43,9,47
69,49,49,49,50,46,49,49,46,50
54,47,48,48,52,45,49,47,11,50
67,64,50,50,51,48,63,63,44,76
84,48,48,48,49,46,82,83,10,88
46,21,11,12,16,18,18,22,12,24
50,43,43,44,44,42,43,42,9,44
71,44,58,44,110,47,62,63,13,44
67,50,53,53,50,49,50,50,47,50
70,43,39,38,43,40,38,41,13,43
76,46,50,47,47,44,44,45,12,46
76,43,42,42,80,41,42,42,16,79
76,42,43,43,44,40,41,40,9,80
72,48,48,46,50,45,47,47,46,50
72,9,40,9,13,9,41,9,15,9
76,47,46,46,49,44,46,47,9,48
74,46,45,45,47,44,44,45,10,47
82,46,46,46,47,45,46,46,9,47
79,47,47,47,49,45,47,46,10,49
72,47,49,48,111,44,45,45,47,45
76,44,45,45,48,43,43,44,9,47
75,47,45,45,47,44,46,45,10,47
75,46,45,44,46,43,43,44,9,47
48,44,43,42,44,41,42,41,10,45
49,58,63,66,64,60,58,58,70,57
42,47,39,37,52,41,41,39,48,45
45,83,86,85,83,26,41,41,83,83
45,41,36,26,30,22,37,37,14,42
77,46,46,45,46,43,44,44,44,48
72,46,46,46,47,44,44,45,43,47
76,47,47,48,48,45,46,46,45,48
74,49,47,47,49,45,46,47,11,49
76,43,44,44,46,43,43,44,11,46
72,43,41,41,42,41,42,41,13,45
72,46,46,46,49,44,45,46,10,48
67,52,52,52,54,48,51,52,48,54
70,60,55,54,57,51,59,58,46,63
71,46,45,45,46,43,43,44,10,49
72,50,50,50,111,46,49,51,45,110
79,9,8,9,12,8,8,8,13,10
74,46,45,45,47,44,44,45,9,47
74,43,44,41,47,39,46,41,13,46
72,44,44,44,48,42,43,43,9,46
76,45,44,44,46,43,43,44,10,46
74,45,44,44,47,43,43,44,110,48
36,39,41,42,48,46,42,40,70,47
72,65,66,63,69,59,65,66,59,69
72,43,40,39,48,40,40,42,17,47
72,47,48,43,48,44,45,45,12,46
77,46,46,46,113,44,45,46,10,46
78,45,44,44,45,42,44,43,9,46
72,47,48,46,49,44,46,45,43,48
76,46,46,45,113,44,45,45,10,49
68,49,47,46,50,45,46,47,45,51
72,48,47,47,48,45,46,46,10,51
69,44,44,43,46,42,43,44,13,46
76,46,46,46,47,44,45,45,9,50
71,49,50,48,48,46,47,47,9,47
53,48,49,49,113,46,48,48,9,51
74,45,45,45,46,44,45,45,10,47
46,45,42,42,50,42,42,42,11,46
72,46,45,46,47,45,46,45,16,10
76,46,46,46,50,44,45,46,10,49
53,48,48,47,50,46,47,48,46,50
54,49,49,48,114,47,48,48,47,113
64,70,72,73,76,78,65,67,76,72
76,46,46,45,51,44,45,45,9,49
74,39,38,11,11,15,37,35,10,40
73,44,43,43,44,41,43,42,9,45
76,52,51,51,55,50,51,51,11,55
80,47,48,48,47,45,47,47,10,85
76,44,44,44,8,41,42,42,9,46
45,16,14,14,14,15,40,41,15,14
46,44,43,43,46,42,42,43,11,45
47,44,43,42,43,41,42,42,9,45
51,46,45,45,48,44,45,44,9,46
71,56,55,55,56,48,56,57,45,59
72,45,45,45,45,44,45,44,10,46
81,52,51,50,50,46,49,50,10,55
67,45,43,43,44,42,42,43,13,46
74,46,46,46,112,45,45,46,10,47
71,49,50,48,50,45,47,47,45,50
78,44,45,45,46,42,43,43,9,46
80,42,40,39,42,40,40,40,20,44
75,47,48,48,112,45,45,46,44,111
78,21,27,27,20,22,22,20,109,21
77,41,39,39,49,39,40,39,12,43
72,45,45,45,47,43,44,45,43,48
14,24,32,32,29,26,43,35,24,25
65,45,44,44,44,42,44,43,10,48
50,44,45,44,45,42,44,45,9,47
69,47,47,47,51,43,46,47,43,49
69,40,37,37,27,41,37,38,41,42
77,44,44,44,46,43,44,44,110,46
73,46,45,45,47,44,44,45,10,47
45,38,26,22,30,17,37,36,11,41
49,46,45,45,46,44,44,44,10,47
79,43,42,42,43,40,41,41,8,44
48,44,43,43,43,41,43,43,8,46
68,44,42,45,42,42,41,42,9,49
80,50,51,51,115,48,49,49,10,114
76,47,48,47,49,44,46,47,10,48
76,44,44,42,46,42,42,43,10,44
68,47,47,47,50,44,47,47,46,49
76,44,45,45,45,42,43,43,110,46
79,48,48,48,49,45,47,46,10,49
51,52,49,64,63,66,49,49,82,56
48,41,39,10,10,10,38,39,14,44
46,40,38,37,41,21,40,39,15,44
71,50,48,48,52,48,48,48,10,50
67,44,41,42,80,42,42,43,75,75
71,46,47,47,47,43,43,44,10,49
82,48,46,45,49,45,46,46,9,47
48,19,29,28,20,23,42,41,19,18
71,45,45,45,49,44,44,46,12,47
70,46,46,44,48,42,45,46,9,48
51,46,45,45,47,44,46,45,45,47
76,47,47,47,113,44,44,45,43,47
81,81,49,49,50,45,46,46,10,83
71,44,42,42,44,42,41,42,10,44
68,54,52,52,54,49,55,56,48,57
72,43,43,42,45,40,42,43,8,45
72,46,45,44,47,44,44,45,11,46
44,42,38,11,11,10,39,39,12,45
50,44,44,44,42,42,41,42,10,47
70,49,49,49,50,47,49,49,10,49
72,45,42,42,43,42,42,43,18,12
77,45,44,44,46,43,43,44,8,48
77,46,46,45,114,44,45,46,45,48
48,46,44,44,47,43,43,44,109,46
77,47,48,47,114,44,45,45,9,113
76,44,43,43,45,42,42,43,10,45
79,41,40,40,42,38,41,40,9,42
70,81,82,82,83,78,85,86,93,78
40,50,50,52,53,51,46,47,54,50
75,44,43,42,48,44,41,42,42,46
68,48,46,46,47,45,46,47,9,47
79,49,48,48,115,47,48,48,47,50
76,48,47,47,48,44,46,46,9,47
73,46,47,47,48,43,47,45,11,48
52,48,47,47,47,45,46,47,10,49
74,44,44,45,44,43,44,44,9,44
77,44,43,42,45,41,43,43,9,45
75,47,46,46,46,45,45,46,10,50
50,45,44,44,48,43,43,44,13,47
71,10,10,10,10,10,44,45,13,10
44,52,29,23,29,15,41,39,12,52
70,51,51,51,112,48,48,49,44,54
43,43,10,10,16,10,40,39,15,46
82,46,47,46,48,45,45,45,9,85
9,9,9,9,13,9,8,9,13,9
50,44,43,43,45,41,43,42,9,45
45,41,41,38,41,39,40,40,13,45
78,44,44,44,113,42,43,44,8,45
74,47,46,46,48,44,45,46,10,48
42,43,53,51,51,14,39,38,13,42
70,43,43,43,112,40,41,42,43,46
82,45,45,45,47,43,43,44,9,47
76,44,44,44,11,10,45,42,12,46
76,45,44,44,46,42,43,43,11,46
83,46,46,46,49,44,45,46,10,48
81,44,43,44,45,41,42,43,10,44
42,47,20,16,25,17,36,39,17,49
75,46,45,46,47,43,45,46,9,47
72,45,45,45,47,43,44,45,43,45
72,24,28,26,29,24,32,24,26,24
74,48,47,47,113,46,46,47,45,112
55,47,45,45,111,44,45,46,12,48
75,44,44,44,45,41,44,44,9,46
82,46,47,47,47,45,45,45,43,49
71,46,51,44,45,43,43,45,44,45
76,48,46,46,112,45,46,46,109,49
79,49,48,47,115,46,47,47,10,50
77,45,45,44,113,42,43,45,9,46
67,50,50,50,53,45,50,48,46,51
72,61,60,57,56,48,56,59,43,64
66,46,47,47,49,43,43,45,42,49
63,63,63,64,68,61,61,61,64,67
81,81,46,46,11,44,44,45,12,83
75,44,43,43,45,42,43,43,10,45
75,47,48,47,112,43,47,45,43,112
47,40,35,35,110,32,39,38,108,110
78,47,45,45,49,44,44,45,12,47
74,46,44,44,46,44,45,45,11,46
68,45,45,43,45,45,42,45,38,45
76,48,48,47,48,45,46,46,10,49
83,48,46,46,10,45,46,46,11,10
71,46,46,46,47,45,46,46,11,47
70,46,46,46,46,44,47,46,10,48
76,43,42,42,46,42,41,41,11,43
71,47,47,47,112,44,48,46,44,111
75,46,46,46,46,43,45,44,11,48
69,47,42,44,52,43,43,41,17,48
76,43,44,44,46,43,42,43,10,46
73,44,42,42,43,41,41,42,15,44
78,45,45,45,46,42,44,44,9,47
74,45,45,45,47,43,44,45,10,46
69,45,37,39,44,45,39,41,39,43
50,46,45,45,47,44,46,47,14,49
76,43,43,44,45,42,43,43,11,44
76,47,47,46,112,44,46,46,42,49
76,44,43,43,44,41,43,42,9,45
64,45,46,44,48,42,45,45,8,45
107,10,108,10,110,10,10,10,10,108
77,110,49,111,113,45,47,47,9,112
71,49,49,49,113,45,48,49,46,112
80,48,48,48,115,45,45,46,10,50
49,45,44,44,45,42,44,43,11,46
68,48,48,48,84,46,48,46,13,80
66,43,41,38,78,41,38,38,78,71
75,46,47,46,47,44,45,45,9,48
77,45,45,46,45,43,45,45,11,48
66,47,47,47,49,44,46,46,45,49
70,54,55,55,113,50,50,53,11,112
80,50,48,48,51,48,48,49,10,50
77,47,46,46,48,44,45,46,10,48
73,42,42,43,43,41,42,42,10,44
65,50,51,48,52,47,51,49,46,53
76,47,46,46,48,44,45,45,10,48
55,48,46,46,47,45,45,46,10,48
34,39,39,38,42,39,38,37,47,41
77,77,77,77,37,27,77,75,28,30
59,52,52,52,114,49,51,52,14,112
73,44,43,44,45,42,43,42,44,47
84,47,48,48,49,46,46,46,10,49
74,45,45,45,46,42,42,46,10,47
70,80,82,81,85,77,77,77,80,80
80,42,42,42,43,40,42,41,8,44
39,39,40,36,48,41,38,34,36,40
50,45,44,44,46,43,43,44,10,45
75,45,45,43,44,43,43,44,9,45
55,49,50,50,111,46,47,48,12,52
75,47,45,45,48,43,44,45,45,47
45,42,40,40,45,40,40,40,40,43
71,48,48,48,112,45,48,47,45,111
41,10,9,16,18,18,9,9,16,17
75,52,52,51,115,48,50,50,48,52
70,44,43,43,10,42,42,43,13,46
70,44,43,44,48,42,41,42,44,45
78,8,8,8,10,8,39,8,13,8
80,45,45,45,47,44,44,45,10,47
41,43,34,29,51,19,39,38,16,47
72,46,45,45,46,44,44,44,12,47
80,48,47,47,88,46,46,46,11,85
78,48,48,48,49,45,47,48,10,50
73,48,47,46,111,45,45,47,10,50
70,50,48,48,112,46,48,48,45,111
77,47,46,46,47,44,45,46,10,48
77,45,46,45,49,44,44,45,45,48
69,46,46,46,47,43,46,44,9,46
69,46,47,47,51,43,49,45,44,49
67,48,50,47,50,46,64,65,15,74
49,47,29,29,36,28,35,36,9,48
74,45,46,45,48,44,45,46,44,46
66,74,79,79,81,75,68,74,76,74
48,44,43,43,46,41,43,43,10,45
76,52,51,51,115,49,58,58,9,79
72,55,53,53,57,48,54,55,45,58
49,43,44,39,44,40,43,41,109,46
78,42,42,42,43,39,41,42,9,80
74,46,47,47,51,46,46,47,45,50
53,46,46,46,50,42,45,45,16,48
66,43,43,78,79,75,42,41,75,75
71,50,51,48,49,46,47,48,45,48
77,46,47,46,113,44,45,45,43,112
72,42,41,41,45,41,41,43,13,43
75,45,46,46,46,43,44,45,9,48
79,9,9,9,13,9,9,9,16,12
20,41,68,64,56,65,38,37,60,44
69,50,49,48,52,46,49,50,44,51
68,51,51,49,53,45,50,53,45,51
72,49,50,48,52,47,47,47,45,110
81,47,47,47,47,44,44,45,10,49
78,49,50,49,114,47,49,49,10,52
73,48,48,44,48,40,45,43,41,47
80,44,43,43,46,42,43,43,10,45
76,45,44,44,9,43,44,44,9,9
75,46,46,46,49,43,44,44,10,48
74,9,41,14,15,9,42,41,17,10
79,45,45,45,113,44,44,45,9,47
75,46,45,44,46,43,44,45,10,47
75,52,50,49,53,49,54,51,11,81
44,25,27,27,27,24,39,25,23,23
52,9,48,9,9,8,47,47,9,9
40,42,35,36,48,36,35,35,44,40
77,45,45,45,45,42,44,45,9,46
70,47,46,48,49,44,46,47,9,50
45,11,11,11,14,18,11,11,13,14
71,48,47,47,49,45,46,46,11,49
51,42,41,42,41,41,41,43,15,47
69,51,52,52,52,47,58,50,45,111
73,44,44,44,46,43,43,44,10,44
81,47,46,46,48,44,46,45,10,48
68,45,45,44,45,44,44,43,11,47
75,47,48,48,50,45,47,46,44,50
70,46,44,44,48,44,44,44,44,48
66,50,50,48,112,45,47,49,46,111
78,49,49,49,50,46,48,48,10,83
80,50,51,51,53,48,50,49,10,53
74,45,45,43,46,43,44,44,9,46
73,44,44,45,47,42,44,42,10,47
54,56,25,64,27,72,54,53,66,65
68,45,44,44,47,43,44,44,44,46
76,46,46,46,47,44,45,45,110,48
69,49,47,47,47,45,46,47,43,51
54,29,28,28,29,29,28,28,27,29
57,71,43,43,79,70,70,70,12,75
72,46,43,44,51,43,42,42,15,48
75,45,45,44,112,43,44,44,43,47
48,45,44,44,45,43,44,45,11,46
44,46,39,39,47,40,41,42,40,43
77,48,47,45,47,44,47,47,10,51
74,49,46,42,46,47,46,47,42,47
76,44,45,45,44,41,44,44,10,47
77,46,46,47,47,43,44,45,9,47
76,48,49,49,49,47,47,48,9,51
77,46,45,45,46,43,43,44,12,47
59,52,50,50,53,49,50,50,10,52
70,49,49,49,52,45,48,49,44,52
70,77,78,78,82,75,75,75,18,78
45,15,25,23,21,22,40,39,21,14
77,48,49,49,114,47,49,49,10,51
66,52,51,50,51,46,51,51,45,52
80,49,49,50,50,46,48,48,10,51
67,46,46,46,47,44,44,45,10,48
80,48,49,47,51,47,48,49,10,83
52,46,46,46,112,43,45,45,42,48
55,42,42,12,12,14,40,39,13,44
69,53,53,53,54,49,53,51,48,55
71,46,46,45,48,44,43,45,10,47
57,52,52,51,114,47,51,50,46,113
76,44,44,43,45,42,42,43,10,46
49,43,44,44,46,42,42,42,9,46
69,48,49,46,50,44,47,48,43,51
76,46,44,44,45,42,43,44,10,46
48,46,43,43,107,44,43,44,106,48
81,47,48,47,50,45,46,46,10,84
76,47,47,47,50,44,45,45,46,48
75,46,46,45,49,44,44,45,10,49
46,49,42,40,54,42,42,44,14,45
47,44,44,44,46,43,43,43,9,46
42,79,80,80,83,77,77,78,78,80
70,48,48,48,87,48,48,49,13,10
71,45,43,13,16,11,42,43,19,46
79,43,42,42,9,40,40,42,9,44
74,47,46,46,47,44,46,45,12,48
54,49,49,49,53,48,48,48,11,52
72,41,40,10,10,10,40,40,13,44
70,46,46,47,48,43,45,45,45,110
80,49,47,46,10,46,46,47,10,10
71,45,44,44,45,42,42,43,10,46
45,44,42,41,112,43,40,42,42,45
75,43,44,43,44,42,42,42,9,45
36,48,50,51,51,53,41,41,53,48
48,46,44,44,47,44,44,44,12,47
71,42,40,10,52,10,40,40,17,45
19,21,22,21,23,20,19,19,103,21
80,45,45,45,46,43,44,44,9,46
44,56,56,56,61,55,42,41,63,56
75,45,44,43,47,43,44,46,10,47
73,45,44,45,46,43,44,44,10,46
69,53,53,53,56,48,57,58,45,56
73,47,48,48,112,45,46,46,9,50
68,42,51,51,25,23,36,37,20,23
44,39,39,39,44,36,39,41,11,42
47,44,42,42,113,40,41,42,117,46
77,49,49,49,53,45,49,48,10,50
42,81,84,82,86,80,38,39,81,82
60,47,47,45,49,44,44,44,40,48
72,46,47,47,51,46,45,47,10,50
45,15,26,20,21,22,40,40,21,16
68,49,48,48,50,48,48,48,10,50
78,45,45,45,45,43,43,43,9,47
80,52,52,51,116,49,52,53,48,115
75,46,45,45,46,44,44,44,10,49
72,43,42,43,47,42,42,42,11,46
45,21,24,24,25,21,9,10,22,24
76,46,46,46,47,45,45,45,9,47
10,13,14,14,18,22,9,9,21,14
73,50,50,49,112,49,50,50,10,51
74,44,45,45,10,43,43,43,11,47
49,47,45,45,49,44,44,45,11,50
73,45,43,45,44,42,43,42,43,45
9,9,8,9,13,8,8,8,14,11
44,9,9,9,9,9,38,38,11,9
70,49,48,47,111,45,46,50,46,50
84,46,46,46,49,44,46,46,10,48
72,48,49,49,112,45,47,47,46,111
80,50,50,50,53,48,50,51,10,53
52,47,47,47,113,45,47,46,45,49
72,10,41,40,19,23,40,38,16,13
71,52,54,52,55,47,56,54,44,55
79,44,44,43,46,42,43,43,10,45
79,44,44,44,44,42,44,43,9,47
74,45,46,46,47,44,45,46,10,47
72,44,43,40,44,44,39,42,13,44
19,88,88,88,92,83,85,86,49,91
71,45,43,43,9,42,42,43,10,45
84,51,51,50,51,50,50,51,11,52
44,42,38,35,42,30,40,40,13,42
46,20,28,27,25,24,19,20,18,20
75,45,45,45,47,43,44,44,43,45
68,48,49,47,51,45,46,46,46,51
51,44,44,17,19,17,45,43,19,47
75,45,44,44,46,43,45,44,43,46
47,45,43,43,44,42,42,43,9,44
76,45,43,43,9,43,43,43,10,45
69,77,51,51,81,48,62,64,10,78
62,49,49,48,50,46,48,47,46,50
50,45,45,43,46,42,43,43,9,47
74,45,45,45,46,43,43,44,10,47
77,46,45,45,112,44,44,45,8,47
80,49,49,49,49,47,47,47,11,52
79,40,39,8,9,8,39,39,9,80
78,46,47,47,46,44,44,44,11,49
73,10,10,10,14,9,9,9,17,11
80,44,43,43,48,42,42,42,13,47
77,46,45,45,45,42,45,44,11,47
78,43,43,43,45,41,42,43,8,46
71,49,49,49,51,46,48,50,46,51
70,48,49,47,49,45,46,47,9,51
78,46,45,45,113,43,43,44,43,47
50,45,45,44,48,43,44,44,9,48
74,44,45,45,112,43,45,46,109,111
81,81,43,43,46,41,42,43,9,81
38,50,18,18,19,14,31,31,10,45
85,45,45,45,47,43,44,44,9,47
80,44,44,43,46,41,43,43,9,45
68,47,46,46,47,44,46,46,12,48
69,47,47,47,47,46,46,47,9,47
53,47,47,47,47,44,44,45,108,48
80,45,45,45,46,44,44,44,11,46
56,10,10,10,10,9,48,48,16,10
66,44,42,9,9,42,43,42,12,9
79,48,49,48,115,46,47,48,47,51
80,46,47,46,50,45,46,46,9,49
52,47,47,47,47,45,46,46,11,49
69,47,45,45,111,43,44,45,44,110
83,50,50,48,50,47,49,48,10,52
41,40,38,48,52,18,37,38,48,48
53,46,46,46,46,43,43,45,8,47
77,45,44,44,48,42,42,43,9,46
79,43,44,43,44,41,41,42,8,45
77,46,45,44,113,44,48,48,10,47
75,46,45,45,46,44,46,45,9,49
77,46,45,46,48,45,45,45,10,46
70,53,54,51,115,50,50,51,47,114
82,51,50,50,53,48,50,49,10,54
107,46,44,44,46,45,42,42,47,46
44,43,40,37,48,22,40,41,16,43
76,45,44,45,45,43,44,44,9,46
78,44,43,42,113,42,42,43,9,44
74,43,43,44,45,41,42,42,9,45
69,48,45,50,46,45,46,47,12,47
71,46,46,48,48,43,44,45,43,46
47,44,44,44,45,43,43,43,10,44
76,51,51,50,53,50,51,52,11,52
69,47,46,46,47,42,44,45,45,47
47,45,45,45,46,42,42,43,42,47
57,45,46,45,48,43,44,44,11,48
76,45,44,44,45,43,43,44,10,46
70,50,51,51,55,47,55,58,10,77
79,48,48,48,52,47,47,48,48,50
46,45,42,42,50,42,42,43,12,48
73,48,49,47,111,46,46,47,44,48
46,10,10,10,14,10,10,10,17,11
85,48,49,47,9,46,46,47,9,49
74,45,43,43,47,42,42,45,10,46
77,43,43,43,47,42,44,43,9,45
77,46,46,45,46,44,45,46,10,47
77,44,43,43,43,41,42,42,9,45
74,46,45,45,47,43,44,44,10,47
47,8,8,8,9,8,42,42,10,8
67,50,50,49,49,48,48,47,44,49
47,43,42,42,43,41,41,42,109,45
80,47,47,47,50,46,46,47,10,49
76,44,44,44,46,42,43,43,9,46
72,10,10,17,18,19,9,10,15,18
81,10,9,10,10,9,44,43,10,10
66,52,51,50,52,47,51,52,46,55
74,49,47,43,47,48,48,47,12,51
44,8,8,8,9,8,41,39,12,8
75,46,45,45,48,44,44,44,44,46
26,27,28,27,29,57,55,56,63,61
71,52,51,51,52,47,50,51,46,55
75,45,42,43,47,42,42,44,11,45
44,43,51,51,54,40,39,37,13,44
73,44,44,43,46,42,45,44,10,46
75,46,45,46,47,43,44,44,10,48
72,46,46,46,47,44,47,45,9,47
49,47,45,45,46,44,44,46,8,46
69,68,51,48,54,46,65,66,16,74
79,48,48,48,50,45,47,46,10,82
36,41,40,41,45,52,39,39,76,42
77,43,43,44,48,42,42,43,10,46
72,80,81,81,85,24,77,78,21,82
85,46,46,46,48,45,45,46,13,10
73,45,45,45,46,42,45,44,10,49
46,43,41,40,44,38,41,42,40,43
84,46,47,47,48,45,47,46,10,48
44,43,42,43,50,42,41,42,11,44
72,44,43,43,44,40,43,42,12,45
79,45,45,45,46,44,45,45,10,47
50,43,43,43,43,41,42,43,16,46
80,42,41,41,10,40,40,41,14,43
43,40,9,9,11,9,38,39,14,42
52,46,45,45,46,43,43,44,10,49
71,44,41,41,45,42,41,40,41,44
44,43,43,39,44,25,42,41,19,43
43,40,39,38,45,39,38,38,109,42
76,51,50,50,52,48,49,50,10,52
79,46,46,111,113,43,45,45,7,113
14,20,25,23,27,20,19,20,22,25
77,43,44,44,46,41,43,42,9,46
71,71,54,53,12,48,69,68,15,12
79,47,48,48,51,45,47,47,10,50
69,45,45,44,48,42,44,43,17,48
79,45,46,46,47,43,46,44,12,48
43,43,42,39,52,23,40,41,23,43
69,49,49,47,112,45,48,49,44,52
77,45,45,45,45,43,43,43,43,46
74,46,45,45,47,43,45,45,11,47
78,48,46,46,114,45,45,46,45,48
76,46,45,45,49,43,44,45,43,47
84,48,48,47,50,46,48,48,10,49
70,43,40,40,18,23,40,39,18,13
72,46,47,47,48,43,45,46,44,48
76,45,43,43,46,42,42,43,8,45
63,61,61,59,65,60,59,60,66,64
78,43,43,43,46,41,42,43,10,44
76,46,45,45,113,43,44,44,43,112
45,42,29,29,29,25,41,40,24,46
43,106,24,106,106,20,25,23,105,106
39,46,51,52,51,51,39,38,56,46
71,44,42,38,49,41,41,40,42,45
72,62,57,54,58,51,59,61,48,64
76,44,45,44,47,43,44,45,9,47
70,47,45,46,47,46,46,45,12,48
77,51,51,50,53,48,51,50,10,51
61,65,65,66,71,65,61,62,73,67
80,49,48,48,114,113,114,49,9,113
69,50,51,48,52,47,51,52,47,52
73,47,47,47,47,44,46,45,10,50
42,18,18,11,11,12,14,15,11,20
43,51,55,55,55,56,50,50,55,51
78,44,43,43,46,42,43,43,9,45
73,51,52,50,53,46,48,49,47,11
78,48,48,48,48,47,47,48,13,48
70,45,45,44,46,42,43,44,42,45
42,52,40,35,50,41,38,39,11,48
76,46,44,44,9,43,44,44,9,46
81,45,45,45,47,43,45,44,10,47
72,48,48,46,112,44,47,46,9,111
42,65,66,66,70,67,62,65,74,67
72,45,45,45,46,43,44,45,110,48
79,44,44,44,46,42,44,44,8,46
78,45,45,44,113,42,43,44,9,46
75,45,44,44,45,43,43,43,9,46
50,46,46,45,114,43,44,45,44,48
68,49,50,49,112,46,46,47,46,52
72,54,54,52,54,49,61,55,45,57
49,46,46,46,46,45,45,46,10,47
77,47,45,45,46,45,46,45,9,47
68,46,44,44,48,44,44,44,10,46
76,45,44,44,45,42,44,45,10,47
72,46,47,47,48,43,46,47,10,48
77,84,48,48,10,47,48,48,11,84
111,49,49,48,113,46,47,47,46,112
75,50,50,49,52,47,47,48,9,51
74,48,48,46,49,45,46,47,109,49
80,49,49,49,50,47,49,49,10,50
74,46,46,47,51,44,47,45,9,9
84,84,84,84,114,81,82,81,8,84
42,16,25,20,16,11,10,11,10,15
53,48,48,48,49,45,48,46,45,50
70,41,40,41,42,41,39,37,41,41
72,47,48,48,48,44,46,47,44,48
47,42,42,41,42,40,41,41,11,45
77,44,44,44,46,42,43,43,10,46
76,45,46,46,49,44,44,45,10,48
53,48,46,46,46,45,45,50,42,50
79,49,49,48,51,46,46,47,46,49
76,46,46,45,112,43,44,44,110,112
47,43,42,41,45,39,42,42,16,44
80,48,47,47,49,45,46,47,10,49
47,44,43,42,45,41,41,43,12,45
76,47,46,46,48,44,46,47,9,49
43,42,41,78,82,25,42,41,76,75
78,46,44,44,113,43,45,44,11,49
73,47,46,45,112,44,45,46,45,111
82,45,46,46,47,44,44,45,110,46
81,46,46,46,48,44,45,45,9,48
73,46,44,44,48,44,45,45,10,45
73,49,50,49,52,48,51,50,48,50
68,45,44,45,46,44,44,44,10,46
42,55,58,58,58,58,54,55,64,54
76,52,53,49,53,49,49,50,11,51
78,47,46,46,114,44,45,46,45,48
75,41,41,9,9,8,40,39,9,43
74,47,48,48,48,45,47,46,9,50
79,45,44,44,46,43,43,44,9,46
72,46,45,44,112,44,45,46,11,47
46,77,42,41,80,40,40,41,15,78
75,75,39,37,80,40,40,47,13,77
76,44,44,44,45,43,43,44,10,46
42,14,13,12,20,12,16,14,12,15
72,46,45,47,49,42,46,44,10,49
73,48,47,45,48,45,46,47,110,47
73,47,46,46,47,44,46,46,108,48
78,50,49,49,10,48,49,49,10,81
80,44,43,43,46,41,44,43,9,45
75,46,46,46,48,45,45,46,44,48
74,46,45,45,49,43,46,45,9,47
79,46,46,46,46,44,45,45,10,47
75,47,47,47,48,44,46,45,10,49
69,44,45,44,47,42,46,44,9,47
48,44,44,44,46,43,44,44,9,46
67,48,47,47,49,45,45,46,45,49
45,59,60,61,64,61,54,57,73,62
77,45,45,45,49,44,45,45,45,47
70,42,42,44,47,40,39,42,20,44
51,46,45,45,46,43,44,44,10,47
72,46,46,45,49,44,46,47,44,47
79,43,43,43,46,41,42,42,9,45
69,48,49,49,50,47,48,46,11,51
73,47,48,48,45,45,44,45,9,50
75,46,46,46,47,43,44,44,9,47
71,45,41,42,46,43,42,40,10,45
77,49,50,50,52,47,49,48,10,82
84,47,47,47,10,44,46,45,11,88
72,45,46,45,47,42,44,44,9,47
71,46,46,46,47,44,44,46,10,10
71,47,48,48,111,46,46,48,45,110
77,42,42,42,44,40,41,41,9,45
74,48,46,48,53,45,46,46,16,51
83,43,43,43,44,42,43,44,9,45
70,47,47,47,48,45,45,46,11,48
71,52,51,51,51,48,49,50,47,51
82,49,50,49,10,48,48,49,10,10
75,47,47,47,51,46,46,47,10,49
75,48,47,47,49,45,46,46,45,49
68,40,38,37,41,38,36,36,39,41
51,46,47,47,49,45,45,46,10,49
71,45,45,44,47,44,44,45,9,47
76,45,45,45,47,42,44,43,43,47
76,44,44,44,47,44,44,45,9,46
75,46,47,47,49,43,45,45,9,49
64,47,47,46,50,45,46,46,9,49
60,67,75,75,74,77,61,63,76,68
78,51,50,50,53,48,50,49,10,52
68,48,48,47,50,45,46,46,10,48
79,43,43,43,45,42,42,42,12,43
83,44,44,44,46,42,43,43,10,46
77,46,47,47,47,45,45,45,44,49
71,48,47,47,112,45,47,46,46,111
77,46,45,46,46,43,43,44,11,47
79,47,47,47,47,47,47,49,10,49
50,46,47,47,48,45,45,44,11,48
85,84,44,44,116,42,82,82,9,85
75,46,45,45,47,43,43,45,43,47
46,47,41,40,52,39,43,42,11,47
80,47,46,46,48,44,46,46,10,48
78,43,41,41,48,40,40,41,10,43
71,43,43,41,45,41,42,42,13,46
75,46,45,44,47,43,45,45,10,47
75,45,46,46,48,44,45,45,11,48
70,47,47,47,47,44,47,45,12,49
76,43,43,43,44,40,41,41,13,46
71,42,41,42,47,41,40,40,15,12
52,47,47,47,48,45,46,46,47,50
53,42,41,43,45,38,43,41,31,45
77,44,43,43,45,41,41,42,9,45
63,70,80,80,75,76,64,67,74,71
48,45,45,45,48,44,44,45,11,47
82,47,48,47,10,44,47,46,11,10
73,47,49,47,51,46,45,46,47,49
46,28,30,29,30,28,42,39,27,28
76,47,47,47,49,44,47,46,46,49
76,49,48,49,113,45,46,47,9,52
77,45,43,46,114,42,47,45,47,52
107,51,53,52,48,45,49,48,53,55
70,46,46,46,45,44,44,44,46,49
80,47,46,46,49,45,46,46,9,48
72,48,50,48,49,45,44,47,10,46
72,58,56,56,57,51,61,61,46,66
76,45,46,45,49,44,47,45,45,48
74,45,45,45,112,43,44,45,43,47
74,45,45,45,85,44,44,44,9,83
81,47,46,46,48,44,47,47,9,48
74,50,49,49,52,47,47,48,11,51
80,84,44,43,44,43,81,82,9,82
109,47,47,47,50,45,45,46,12,112
78,49,49,49,50,47,48,49,47,51
70,51,52,51,112,47,51,50,47,110
43,43,41,39,54,24,40,40,18,45
72,51,52,52,112,46,46,49,44,111
72,46,46,46,46,43,46,44,109,49
76,80,39,39,42,37,77,79,8,83
76,47,47,47,49,45,46,46,9,49
76,43,44,44,10,41,42,42,12,46
78,45,44,44,46,43,44,44,8,46
74,46,45,45,47,43,44,44,13,10
45,41,40,39,42,39,40,41,13,46
82,47,46,46,116,44,45,46,10,48
70,44,43,39,43,40,40,41,16,43
81,48,48,48,50,45,48,47,10,50
50,46,45,45,47,44,44,45,108,47
77,9,9,9,10,9,45,44,13,9
74,10,10,10,12,10,41,41,15,11
73,49,47,41,112,46,45,56,41,111
75,46,45,45,46,43,44,44,10,46
40,50,22,22,22,10,38,36,10,48
77,9,45,9,10,42,44,45,13,9
45,43,43,43,47,41,41,41,10,46
76,45,45,44,113,43,44,44,43,46
75,44,43,43,9,41,43,42,11,45
61,44,43,43,46,42,42,43,42,45
80,48,47,47,49,45,47,48,10,49
77,45,46,46,46,44,45,44,9,48
51,44,44,45,44,41,44,44,10,47
51,63,63,63,68,63,62,62,69,66
48,44,43,43,44,43,43,44,9,46
72,45,43,43,50,42,41,43,15,45
48,45,46,46,47,43,44,45,108,46
62,45,45,45,48,45,48,45,13,46
69,43,42,43,9,42,42,41,14,43
74,46,45,45,46,44,45,45,10,49
81,50,51,49,52,47,50,50,47,51
78,43,43,42,45,40,40,42,41,45
72,48,48,46,50,46,47,46,10,50
74,45,45,45,45,42,44,44,12,47
72,55,56,55,56,51,55,58,53,58
73,43,43,43,44,42,42,43,10,43
52,44,44,44,45,43,44,45,12,47
49,46,47,47,48,44,45,44,9,49
71,49,49,49,50,48,49,48,10,50
71,55,54,52,56,50,52,55,49,56
45,43,43,42,51,34,40,39,16,46
76,42,42,42,44,41,42,42,10,44
72,44,42,45,49,41,41,42,45,44
66,46,46,46,46,44,43,44,9,46
63,68,71,71,74,76,63,65,75,71
67,48,47,46,112,44,46,46,44,111
74,47,46,44,53,45,43,45,19,48
49,44,44,43,46,42,43,43,9,45
52,43,41,40,42,38,42,42,37,44
85,83,81,77,84,81,81,82,48,83
81,45,44,44,46,42,43,43,9,46
73,46,46,46,46,44,44,44,12,47
72,47,46,45,85,44,45,45,15,82
75,46,44,41,46,42,43,44,41,46
48,41,38,35,110,35,38,39,107,46
76,46,46,46,47,43,45,46,44,49
77,84,85,85,89,82,82,83,15,12
78,43,44,43,45,42,43,43,10,46
78,48,48,47,49,46,48,48,10,48
75,48,47,47,112,45,45,47,45,49
75,43,44,43,45,41,43,43,10,46
75,46,46,46,50,44,45,46,10,48
81,47,47,46,49,44,46,47,10,47
76,43,43,43,45,42,43,43,9,44
72,45,45,45,49,43,45,44,15,48
71,48,48,48,113,45,49,47,46,51
66,71,49,49,50,45,64,64,45,72
76,45,45,45,47,43,44,44,110,47
76,45,44,43,47,42,43,43,109,46
73,45,46,44,112,43,43,44,42,46
68,48,47,44,48,44,45,46,11,47
83,47,47,46,49,45,46,46,10,47
54,49,50,49,52,47,48,48,16,52
74,46,45,45,47,44,44,45,10,47
51,46,46,44,47,43,45,44,10,46
46,43,42,42,45,42,42,42,9,45
72,40,37,38,44,45,39,36,45,44
73,45,44,44,47,43,43,43,11,9
80,47,46,10,10,44,46,47,10,10
70,50,49,49,112,45,50,48,45,111
24,24,25,25,28,23,22,23,70,26
75,45,45,45,45,42,43,43,10,48
53,47,47,47,110,43,47,44,42,49
43,57,58,59,58,58,41,57,66,54
46,45,43,45,45,43,43,43,10,45
48,46,46,9,9,9,44,45,10,9
78,47,48,48,113,44,46,45,45,49
71,44,56,52,44,42,53,56,38,43
75,48,44,44,45,44,46,46,10,52
45,82,83,83,86,80,79,80,82,84
78,46,46,45,48,43,44,44,9,83
78,45,45,45,45,41,43,43,9,46
70,45,45,46,47,43,44,45,43,47
79,47,46,47,49,46,46,47,10,48
79,48,48,47,50,46,46,47,10,50
74,45,44,44,45,42,43,43,10,48
79,47,47,47,49,44,47,47,10,82
80,43,43,43,114,41,42,42,42,44
76,43,44,44,48,40,43,41,11,45
71,48,47,47,48,45,47,47,44,112
66,50,48,48,111,45,47,48,43,110
76,45,45,44,48,43,44,45,9,48
69,49,50,50,51,46,49,47,46,110
51,46,46,46,48,43,46,44,10,47
54,46,45,46,46,43,46,45,11,50
68,44,42,42,81,42,41,42,20,77
48,45,45,83,82,82,44,45,85,80
75,43,43,43,112,40,42,43,43,45
48,44,43,43,46,41,44,44,10,46
70,47,46,45,46,44,44,45,42,47
51,48,48,48,113,45,47,47,110,112
80,50,50,50,50,47,49,49,11,82
70,47,50,48,112,43,46,46,45,110
53,44,44,44,44,41,41,42,21,47
49,45,44,44,9,43,44,44,11,9
48,41,41,40,45,40,40,41,12,45
76,47,47,47,50,45,46,46,46,49
86,47,47,47,47,45,45,45,10,49
77,47,45,45,114,44,44,45,8,47
70,49,49,48,111,46,48,48,45,110
80,44,45,45,46,43,44,44,10,46
53,43,42,41,44,40,43,43,20,43
73,41,40,37,46,42,36,40,16,10
78,45,46,45,48,43,45,44,9,48
70,49,48,47,49,45,46,48,45,48
78,43,44,44,44,40,43,43,9,46
77,46,46,45,47,44,44,45,43,47
69,48,50,48,112,46,47,48,45,111
71,47,48,45,48,44,46,45,44,47
77,45,44,44,113,42,44,43,9,46
72,54,56,47,48,48,52,52,47,48
78,40,40,40,9,9,38,39,11,42
69,52,52,50,53,48,53,54,45,53
74,46,46,46,48,43,45,46,9,47
73,41,35,33,47,18,35,36,17,41
42,10,10,21,18,21,37,10,17,10
72,46,45,45,46,45,45,46,11,47
73,46,44,44,45,43,43,44,11,46
78,44,45,44,44,43,43,44,9,47
73,46,46,45,49,44,45,44,9,47
76,45,44,44,46,42,43,44,9,80
75,46,45,44,46,43,45,45,9,46
72,44,43,43,47,43,43,43,10,45
77,45,45,45,113,43,44,45,9,48
78,46,46,46,47,45,45,46,10,48
75,74,71,74,113,70,70,71,13,10
80,48,46,46,10,45,46,47,10,49
74,47,46,45,46,44,44,45,9,46
50,44,44,44,46,42,43,44,11,46
67,49,44,50,51,44,57,59,36,65
79,48,46,46,49,45,47,46,10,48
39,49,18,18,21,13,46,46,13,47
79,45,45,45,45,42,44,43,10,47
71,53,49,48,53,44,48,51,43,51
30,30,30,52,30,47,30,29,36,31
68,50,51,51,52,48,49,53,45,109
71,51,50,50,53,48,52,52,46,51
63,46,45,45,113,43,45,45,44,112
72,42,42,43,51,43,42,41,43,43
72,46,47,47,49,44,44,44,8,49
78,45,46,46,47,44,44,44,9,46
75,41,42,42,43,40,42,42,10,44
67,50,48,48,51,46,48,50,47,50
76,47,46,46,114,45,45,46,9,48
46,44,43,42,50,41,41,43,15,44
68,40,37,33,49,18,38,36,14,44
79,41,40,41,15,40,39,40,14,11
51,45,44,44,111,42,44,44,10,47
41,51,51,26,49,21,37,36,107,42
67,51,51,50,53,47,51,52,47,53
71,49,49,49,51,48,48,50,10,81
74,45,45,44,112,43,45,45,43,48
61,51,49,49,113,48,49,49,110,112
41,39,39,36,47,11,40,39,46,46
82,50,49,49,51,47,49,49,10,50
76,72,71,70,70,68,69,70,9,72
73,48,47,47,48,46,46,47,9,52
72,46,44,10,10,9,44,44,13,10
70,44,43,43,45,41,43,43,12,45
77,50,50,50,52,47,50,49,46,50
46,44,41,41,42,42,42,42,12,44
78,46,44,44,46,44,44,45,9,46
74,44,41,42,43,41,41,42,9,43
72,45,46,46,49,45,46,44,46,48
68,47,46,44,48,44,45,46,44,48
70,47,46,44,48,44,43,43,10,46
76,46,46,46,47,45,45,45,43,48
69,46,45,43,12,43,43,44,12,11
71,46,46,46,48,44,45,46,109,48
69,72,75,75,77,70,68,68,72,75
57,70,83,78,75,79,53,55,78,65
41,41,92,91,92,87,38,38,54,45
78,76,77,76,79,73,73,74,73,76
73,46,47,46,46,42,46,46,9,49
70,44,45,45,49,42,41,42,41,47
68,43,41,39,44,40,40,42,39,78
81,46,45,10,10,43,44,44,10,10
67,42,41,42,47,41,41,40,10,46
53,44,44,46,49,43,44,44,15,48
70,47,45,44,48,45,46,45,44,46
70,53,58,54,112,48,53,54,43,111
77,48,49,48,51,46,46,47,9,51
76,45,45,45,46,43,45,44,42,47
68,45,50,47,49,42,47,45,43,47
70,47,47,46,112,44,44,45,44,110
77,45,45,44,113,43,44,44,9,46
70,48,42,49,45,42,44,42,49,44
70,44,42,10,10,10,41,42,14,44
68,43,10,10,13,10,40,40,15,43
76,44,44,44,48,42,45,47,10,47
78,45,45,45,113,43,44,45,9,47
51,10,10,10,13,10,44,44,19,13
74,47,47,47,47,46,46,45,47,51
76,47,46,46,49,44,44,45,44,47
69,47,47,47,49,45,47,47,9,47
79,40,39,10,10,9,40,38,15,43
75,43,42,41,9,42,42,41,10,44
36,53,54,55,54,53,51,53,59,49
84,48,48,48,49,47,47,48,12,10
72,27,28,27,28,27,43,27,13,16
79,50,50,50,114,47,49,48,9,52
74,42,42,42,42,41,41,42,9,44
71,43,40,39,51,40,40,39,14,44
80,46,46,46,47,45,45,45,10,83
78,45,45,45,113,42,43,43,43,47
72,46,46,46,48,45,45,46,44,48
51,46,44,44,46,43,44,44,10,46
68,44,44,45,44,43,45,43,10,47
55,47,46,46,48,45,46,46,11,48
69,47,48,46,48,45,45,45,13,47
76,47,48,48,48,46,47,47,10,48
49,46,44,46,46,43,45,44,10,45
68,46,44,44,111,43,43,44,43,46
78,47,46,48,47,46,47,46,12,48
68,51,49,49,51,48,49,50,47,51
76,46,47,45,47,44,46,45,9,49
73,48,49,48,111,46,47,46,9,110
75,44,43,44,45,42,42,43,43,45
73,47,48,48,52,41,42,45,15,50
50,43,43,41,43,41,42,41,16,47
81,47,47,47,49,46,46,47,11,49
81,114,115,115,116,49,50,51,10,115
74,12,44,11,14,11,44,43,16,12
67,46,45,46,47,44,44,45,43,46
69,49,50,48,51,46,48,48,12,80
75,46,45,44,10,44,44,45,10,46
57,53,53,53,52,47,50,50,53,55
49,47,23,23,27,13,34,46,11,49
78,46,46,46,47,44,46,45,10,46
69,46,46,45,48,43,45,45,44,47
75,45,51,48,46,45,47,46,43,45
41,78,80,79,82,75,75,76,75,77
74,63,57,57,46,47,62,61,46,110
70,46,45,43,52,44,42,45,16,47
75,44,44,44,46,41,43,44,9,46
9,10,10,10,14,8,8,8,15,11
75,45,44,44,47,43,43,43,10,46
71,11,10,11,17,17,37,37,17,13
74,45,45,45,45,44,44,44,45,47
74,46,45,45,47,43,44,45,45,47
77,51,52,52,54,48,51,49,10,54
72,49,50,49,52,42,47,51,49,52
43,13,13,13,14,22,9,9,18,11
76,41,40,40,44,39,41,40,12,44
78,42,34,35,40,31,39,39,15,44
80,48,48,48,50,46,47,47,10,49
75,44,44,44,43,42,43,43,9,46
68,50,49,48,49,47,47,48,47,51
76,47,48,48,112,44,47,48,9,49
49,44,44,44,45,42,44,44,10,46
76,45,45,45,46,41,43,44,9,47
78,46,45,45,114,43,45,44,9,48
69,48,48,48,112,46,47,48,44,111
71,46,45,45,49,43,44,44,14,48
69,48,48,48,48,46,47,48,11,10
72,46,45,11,12,11,41,40,18,45
71,51,50,48,52,46,48,49,46,50
70,46,47,47,48,44,46,47,44,47
72,47,48,46,49,45,46,47,9,48
50,44,44,44,46,42,44,44,41,45
50,47,46,46,47,44,45,46,10,48
80,45,45,45,47,42,45,45,9,48
81,42,42,42,44,41,41,40,9,44
68,52,51,48,52,47,49,51,44,53
47,43,43,10,10,9,42,43,11,10
68,48,47,47,113,45,49,49,9,49
68,77,81,81,82,77,75,71,76,75
75,45,46,46,47,43,43,44,11,46
75,44,43,43,46,43,43,44,9,44
53,42,41,41,111,40,40,39,12,43
74,46,46,47,48,44,45,45,9,49
66,49,50,48,50,46,50,50,46,52
76,30,27,35,35,28,26,29,37,37
66,53,53,53,53,48,57,52,45,57
77,45,45,45,113,42,44,44,9,113
70,48,50,49,49,45,47,47,45,49
64,43,44,44,48,40,40,41,44,46
55,16,28,24,26,27,15,16,23,16
50,44,41,41,11,10,43,42,11,47
73,80,27,27,84,23,23,78,79,81
82,43,44,44,45,42,42,43,9,44
81,43,42,42,44,42,42,42,12,43
84,85,49,47,10,45,47,47,11,87
67,45,44,43,46,42,44,44,10,77
78,48,48,48,114,45,46,47,46,50
67,52,52,50,53,48,53,55,46,57
79,44,44,44,47,42,43,44,8,47
75,46,46,46,48,43,45,46,44,47
71,59,57,54,58,50,63,59,49,63
78,47,47,47,48,44,44,45,10,48
72,42,42,42,42,43,40,40,44,45
68,47,48,48,52,44,47,48,45,50
41,56,58,58,57,60,43,46,60,52
38,48,55,54,55,87,38,39,56,48
77,50,50,50,52,47,50,51,48,53
74,47,45,45,113,44,45,46,42,47
77,45,46,44,46,43,43,43,10,46
47,45,43,46,10,43,43,43,9,49
77,48,48,46,50,44,46,46,9,49
51,45,45,45,46,44,44,44,10,47
72,47,48,46,50,45,45,47,44,47
77,46,46,46,113,44,45,46,8,48
80,51,52,52,115,48,50,52,10,114
81,45,45,45,9,44,44,45,10,9
76,45,46,46,47,42,44,44,9,46
69,57,55,54,55,50,60,57,47,62
11,11,48,48,16,10,10,10,16,14
50,47,47,47,49,45,46,46,109,48
78,45,45,45,45,43,44,44,110,46
73,46,47,47,47,44,46,47,10,49
79,46,46,46,114,43,45,45,44,47
80,44,44,43,46,42,42,43,10,46
75,46,45,45,47,43,43,44,43,47
76,47,46,46,47,44,44,45,9,47
73,47,47,47,49,44,45,46,10,49
77,48,47,46,113,45,46,47,44,48
76,47,46,46,112,45,46,46,44,48
78,47,47,46,114,44,44,45,8,50
76,46,46,44,113,43,43,44,10,48
36,42,42,49,48,50,40,41,57,42
73,42,42,40,44,40,41,41,11,44
71,47,47,11,15,18,41,39,16,47
67,46,47,46,49,45,45,45,45,49
78,47,47,48,49,45,46,46,10,49
50,45,46,44,48,43,43,43,13,47
78,46,46,46,49,43,46,44,8,47
82,45,45,45,46,44,44,44,10,46
76,44,45,44,45,43,44,45,9,45
77,42,40,40,44,39,39,40,11,45
76,46,46,46,46,44,44,45,9,48
71,46,54,54,55,51,43,43,27,47
76,46,47,47,112,44,45,45,9,49
70,45,45,46,45,43,44,45,10,46
55,47,48,47,50,46,46,47,46,50
82,81,45,44,45,43,43,44,10,84
52,46,46,45,46,43,45,44,10,48
48,44,44,45,45,41,43,43,13,47
43,55,55,52,60,53,52,54,18,55
74,44,43,43,43,42,42,42,9,46
73,47,47,47,112,44,46,46,44,111
74,48,48,47,112,46,46,47,46,111
78,44,44,43,45,42,44,44,9,46
74,52,53,53,54,51,64,65,11,82
49,45,43,43,47,43,43,43,18,47
58,48,49,47,51,46,48,47,11,50
83,82,84,84,116,80,80,81,9,85
73,46,45,45,48,43,45,45,11,46
46,55,57,57,58,57,54,54,60,54
79,45,46,46,114,43,44,45,43,47
73,47,47,47,51,47,47,47,10,50
75,49,47,50,51,47,47,48,47,50
74,47,47,47,47,45,45,46,9,50
43,41,52,51,52,39,39,39,11,49
10,11,12,13,18,24,9,9,19,14
50,42,40,40,12,9,42,42,15,42
77,42,41,41,43,41,41,42,8,80
78,43,43,43,113,41,43,42,43,45
40,19,21,20,22,21,10,10,16,18
75,44,44,8,9,8,42,43,10,8
70,49,50,49,112,46,48,48,44,52
70,48,48,48,112,45,47,47,46,49
41,57,57,56,58,67,39,39,59,53
71,49,49,48,112,46,51,50,47,111
44,9,10,10,10,9,40,41,12,10
79,45,43,43,114,42,42,43,43,46
68,45,43,44,111,42,44,43,10,47
78,47,47,46,49,46,46,47,10,49
49,46,45,45,48,43,45,44,11,47
77,42,42,42,42,39,42,40,12,44
69,46,47,47,47,43,44,44,11,47
70,51,51,51,112,46,50,49,46,111
74,45,45,45,46,44,44,44,9,46
42,13,24,23,22,15,10,12,18,13
72,46,44,44,46,43,43,44,11,46
71,47,47,47,47,45,46,46,10,49
81,49,49,49,115,47,48,48,47,50
69,75,29,29,79,27,38,37,74,77
77,47,47,47,113,45,46,46,9,49
76,47,46,45,48,44,44,45,110,48
74,47,46,46,112,44,46,46,43,49
65,45,44,44,46,42,43,43,43,46
80,46,47,46,47,44,45,45,12,10
79,45,45,45,45,43,45,44,9,47
70,46,40,52,45,46,43,43,19,43
86,46,47,47,48,46,46,46,10,48
80,47,46,46,46,44,45,45,10,47
71,48,42,45,49,31,47,43,23,48
77,45,45,45,112,43,45,45,44,46
77,46,46,46,47,44,44,45,10,48
9,44,45,45,46,41,43,42,16,83
38,67,56,59,75,74,64,66,74,74
72,42,41,39,48,32,38,41,11,43
79,47,47,47,10,45,45,46,10,48
68,47,47,47,47,44,44,45,9,48
42,35,28,27,29,23,34,37,19,42
73,44,45,45,44,43,43,43,44,46
76,48,47,47,11,45,48,46,11,11
57,49,48,48,49,48,48,47,48,52
72,45,45,45,46,43,45,45,10,47
77,45,45,45,46,45,45,43,45,47
58,54,53,54,58,53,53,57,107,54
75,45,44,44,112,42,45,45,43,111
72,47,46,46,49,44,44,45,10,47
70,46,46,47,48,43,43,44,43,49
74,45,46,46,46,43,46,44,11,48
76,50,50,50,50,49,50,48,10,86
81,46,47,46,49,44,45,45,10,81
54,49,48,47,49,47,47,48,10,49
77,44,44,44,45,42,43,43,12,46
74,38,30,21,15,21,41,36,14,41
53,55,78,73,68,69,51,51,69,56
81,9,9,9,9,9,9,9,9,9
67,47,46,46,112,44,48,48,44,111
80,50,50,48,52,47,49,48,10,52
47,10,28,10,10,11,42,42,18,10
77,44,44,44,46,42,43,43,43,46
78,45,45,45,45,41,44,43,9,47
68,37,37,38,41,39,44,42,39,39
77,46,46,46,47,45,46,46,9,48
81,43,42,40,43,41,41,42,10,43
78,50,49,49,53,48,49,49,10,52
79,44,43,44,44,43,42,43,11,44
78,46,45,46,113,42,44,44,9,47
69,48,45,45,49,45,45,46,10,48
76,76,76,76,44,28,72,69,24,76
79,45,44,44,45,42,44,43,43,45
68,57,53,53,54,49,54,56,49,56
69,48,46,46,47,45,46,47,10,47
80,44,44,44,11,42,43,43,15,46
83,83,47,46,47,45,45,81,10,85
75,46,45,45,46,43,45,45,109,47
68,47,46,46,48,44,45,46,44,48
53,49,48,49,50,46,47,47,11,52
71,48,47,47,51,43,48,48,9,49
69,45,43,43,43,43,43,44,13,45
77,46,45,45,113,43,47,45,10,49
54,75,76,76,76,72,63,63,72,75
71,63,63,61,62,57,62,64,50,65
82,47,47,47,50,46,46,47,9,48
62,49,49,48,49,46,47,48,44,52
78,44,43,43,45,41,44,43,9,45
10,80,43,42,84,42,42,43,18,82
72,50,49,49,113,46,51,49,46,112
54,50,48,48,48,47,49,48,8,53
75,48,48,48,49,47,48,49,9,50
76,44,44,44,46,42,45,43,11,47
42,11,10,11,13,11,38,10,18,13
69,49,49,47,50,46,46,48,9,49
48,44,44,44,114,42,43,43,42,46
80,44,44,44,46,42,43,43,9,44
47,42,42,43,42,38,42,40,20,47
70,46,44,45,45,42,44,44,10,48
78,45,45,45,45,43,43,44,9,45
77,46,47,47,47,43,47,45,10,49
75,47,47,45,49,44,46,46,45,49
69,48,48,48,49,46,46,47,10,49
79,48,47,46,114,45,46,46,8,113
38,44,25,47,51,12,32,35,10,40
9,21,24,23,25,20,9,11,18,17
70,43,44,43,44,41,41,41,12,43
76,46,47,47,46,44,44,45,9,49
62,40,41,41,45,37,41,41,42,47
84,46,45,10,10,43,46,44,12,10
9,9,9,9,10,69,8,9,12,9
50,45,44,46,47,44,44,44,10,46
69,44,43,43,45,42,44,45,12,45
76,47,47,47,113,45,46,46,45,111
69,74,29,29,29,71,69,71,74,76
76,45,44,45,46,42,44,44,10,81
78,42,42,42,44,40,41,42,9,44
72,45,46,45,45,43,44,44,41,48
71,43,42,9,10,41,41,42,13,44
72,68,67,67,76,67,67,69,10,69
74,43,44,10,11,41,44,43,12,11
71,42,40,41,48,41,40,41,15,45
71,44,42,9,10,41,41,42,13,9
45,40,40,40,9,8,39,38,9,42
78,47,46,46,48,44,45,46,10,48
73,45,44,44,44,43,42,43,11,46
76,47,48,47,50,45,46,47,45,50
72,62,55,53,57,48,65,62,6,56
55,47,48,48,50,45,48,46,11,50
72,55,53,53,53,49,63,62,49,77
73,46,47,45,48,43,45,44,9,49
78,46,46,46,48,43,44,45,9,48
75,45,46,46,47,42,44,43,10,47
73,47,48,48,49,45,47,46,45,48
81,47,46,46,47,44,45,45,10,47
70,48,48,47,113,45,46,46,43,111
74,44,44,44,44,41,43,43,9,45
74,45,46,46,47,42,45,43,108,48
47,9,43,10,10,9,42,43,13,10
71,44,45,45,45,43,45,43,10,47
53,52,53,53,58,49,54,50,55,58
46,45,9,10,10,42,42,43,11,10
74,46,45,45,48,44,47,45,11,47
67,47,46,45,48,44,45,45,45,48
71,45,45,45,47,43,45,43,14,47
66,47,47,47,47,46,46,47,46,49
66,50,50,48,51,45,51,50,43,55
68,46,44,44,45,42,43,44,43,45
77,26,27,27,28,25,25,26,24,27
73,48,46,46,47,45,46,47,10,48
14,108,109,109,111,73,73,74,24,110
77,47,47,47,48,44,46,46,9,49
77,49,49,49,49,47,48,49,10,49
71,45,44,42,48,41,42,43,14,46
77,45,45,45,112,43,45,44,9,48
76,46,45,45,46,43,45,44,12,47
68,48,48,47,50,44,48,48,44,50
72,44,44,44,47,44,45,43,45,45
42,42,38,36,50,18,39,38,11,42
78,44,45,44,113,43,44,44,9,46
79,44,44,45,45,42,44,43,8,45
78,43,41,39,19,19,41,39,19,11
66,51,50,49,52,48,49,49,48,52
70,19,11,11,11,12,16,12,14,19
78,44,43,43,46,42,42,42,9,44
52,47,47,47,47,46,47,47,10,50
45,43,40,37,33,18,40,41,11,44
76,45,46,45,112,44,45,45,44,48
66,47,47,47,113,44,47,46,45,112
65,48,47,47,51,45,45,46,13,49
77,46,47,47,113,45,45,46,45,49
77,45,45,45,45,42,44,43,9,45
78,50,48,48,113,47,49,50,10,50
67,51,51,51,53,47,51,52,9,52
82,47,47,47,49,45,46,47,10,49
72,46,46,45,49,43,44,45,11,47
70,45,44,44,45,42,44,43,11,46
77,9,9,9,9,8,42,8,12,9
43,77,79,78,82,22,75,75,18,79
72,46,43,47,51,44,44,45,21,47
73,51,51,51,116,48,50,51,10,81
71,43,42,40,44,41,42,42,40,42
82,50,49,49,51,48,48,49,10,51
80,44,45,43,9,42,42,43,10,9
54,60,61,61,65,63,60,60,65,61
70,45,46,45,46,43,45,45,44,50
75,43,42,43,43,42,41,42,9,43
77,49,48,47,113,44,46,47,44,49
74,47,47,47,112,44,47,47,44,111
45,41,39,39,40,35,40,39,108,43
68,45,46,44,46,43,43,44,10,46
79,44,44,44,44,42,43,42,9,46
71,44,44,44,45,43,43,44,12,46
52,42,41,41,41,40,40,40,11,42
78,10,40,38,14,38,38,40,17,11
81,48,46,46,48,45,45,46,10,48
70,41,41,42,46,38,42,39,11,44
52,45,43,42,46,42,43,43,42,46
75,48,47,45,113,45,46,47,9,112
75,47,46,45,49,44,44,45,11,48
45,10,10,10,11,10,40,41,14,11
78,44,44,45,46,42,44,43,9,45
70,44,43,45,49,43,43,44,10,47
73,50,50,50,112,47,49,50,47,111
72,8,8,11,15,19,39,8,17,11
71,49,50,48,51,45,47,47,11,51
66,47,48,48,49,45,46,47,42,111
77,9,9,9,11,9,9,9,13,10
80,43,43,42,44,41,42,43,9,44
38,51,55,55,55,56,42,54,65,50
72,78,42,40,115,38,77,77,8,80
73,46,45,45,46,43,44,45,108,47
75,47,48,47,48,46,46,46,14,83
76,49,48,46,50,45,47,47,43,50
75,44,44,44,45,41,45,44,10,46
66,45,46,43,114,43,50,48,43,112
73,45,43,43,43,42,42,44,108,45
64,48,48,46,49,44,46,46,43,49
83,47,46,45,49,45,45,45,12,10
72,47,46,45,47,45,45,46,12,47
74,44,43,43,46,42,44,44,11,46
58,50,48,48,110,47,48,48,10,109
79,74,75,75,74,71,74,73,21,78
50,45,45,44,47,43,44,45,15,46
39,46,14,14,18,11,20,17,11,47
70,59,58,57,58,50,61,61,45,62
74,45,45,44,47,43,44,45,43,46
50,46,46,45,47,45,44,45,45,47
67,48,48,47,48,46,46,46,10,48
66,44,44,43,47,42,42,42,10,45
71,23,25,24,25,22,21,21,21,23
49,12,12,11,12,12,44,11,19,14
70,46,46,45,110,43,45,44,43,47
70,43,41,41,48,41,41,41,14,45
79,81,44,44,45,78,78,79,10,83
81,46,45,45,48,44,46,46,10,47
64,65,26,74,27,75,64,64,75,69
77,44,43,43,10,41,42,42,12,45
53,46,46,46,47,44,45,45,10,48
50,45,44,44,46,43,45,45,13,48
75,51,55,52,51,48,51,50,49,50
70,49,47,47,48,45,46,47,11,48
54,46,44,41,44,44,41,41,40,46
50,46,46,44,46,44,45,46,10,48
75,49,47,46,50,45,46,47,9,50
73,48,49,49,50,45,46,47,9,51
74,44,43,43,44,41,44,43,11,47
52,46,46,46,46,43,46,45,10,46
70,44,42,42,44,41,41,42,13,44
71,43,43,43,44,41,45,43,11,45
72,45,46,46,50,44,44,45,10,48
71,46,46,44,47,43,45,44,43,46
80,48,48,47,49,46,48,49,11,49
69,42,42,40,46,40,39,40,16,45
83,49,48,48,51,47,47,47,10,50
78,46,44,44,47,42,44,44,13,48
69,55,55,50,54,49,54,53,48,52
49,44,43,42,46,42,42,43,10,45
72,43,42,44,47,42,42,42,41,46
75,45,45,45,45,43,43,44,9,47
23,80,81,81,82,78,86,87,93,81
70,45,44,44,45,43,43,44,11,46
76,45,44,44,44,42,43,44,11,46
71,49,48,47,51,45,46,48,46,50
79,45,45,44,47,42,42,44,43,47
69,48,50,49,46,46,51,50,14,51
70,49,49,50,52,46,49,51,9,51
66,46,46,46,47,43,45,45,10,47
77,45,45,45,113,43,44,45,9,47
75,43,44,44,45,42,44,43,8,45
81,50,50,50,51,46,49,49,45,52
52,32,26,22,26,22,48,48,16,49
81,48,46,46,47,45,45,46,10,48
73,43,40,38,49,39,39,42,16,48
74,46,47,46,49,44,45,45,10,49
80,80,45,45,47,44,45,46,9,82
70,47,48,48,110,44,49,47,44,110
69,51,51,50,53,48,50,51,47,52
51,47,45,45,46,44,44,45,10,50
78,45,44,44,48,42,43,43,14,46
76,48,48,47,113,45,46,47,47,112
44,11,9,16,19,17,9,9,17,12
75,45,45,45,48,43,44,45,44,48
47,43,41,40,9,40,42,43,9,45
78,49,49,49,50,45,49,47,10,48
79,46,46,45,49,43,44,45,9,47
71,44,44,44,45,42,45,43,8,45
67,47,48,48,49,45,47,48,10,48
41,48,25,20,24,16,34,34,18,44
71,52,52,50,53,49,50,52,45,110
47,45,45,45,45,42,42,43,9,47
47,29,29,29,81,28,40,28,44,28
67,52,52,52,52,48,52,52,45,54
76,46,47,47,47,44,46,46,8,49
48,44,42,42,46,38,43,40,15,45
76,45,45,45,47,43,45,45,9,46
78,49,50,48,115,46,49,48,45,52
74,84,49,48,10,47,82,82,12,87
73,10,10,10,52,23,40,39,18,10
35,36,35,36,44,36,35,35,43,44
46,49,33,31,57,27,42,43,107,50
41,41,40,40,44,41,39,39,15,43
77,44,43,42,46,42,42,42,9,45
77,50,48,48,50,46,47,48,12,50
74,46,46,46,113,44,46,45,43,112
75,45,45,45,46,43,43,44,9,47
76,46,47,47,47,44,46,47,10,49
75,46,47,46,47,46,46,47,10,47
75,10,9,10,14,9,9,9,15,10
78,45,44,44,113,43,44,45,8,46
20,48,41,65,66,66,41,41,83,49
85,47,46,46,47,44,44,45,10,48
67,47,49,47,50,45,46,47,45,50
75,50,51,49,53,46,48,49,44,111
75,44,42,43,46,40,43,41,13,46
20,50,32,32,31,38,38,38,23,27
79,49,47,47,115,46,47,47,10,50
74,17,17,18,18,10,10,10,14,16
47,42,40,38,42,22,41,42,17,44
77,46,46,46,48,43,44,45,43,46
72,49,49,49,51,46,47,47,47,51
39,96,120,120,96,96,95,95,96,96
75,48,49,49,50,46,46,48,46,111
81,44,43,45,45,42,42,43,9,43
74,46,45,45,47,44,45,46,109,47
42,16,11,17,11,10,10,17,107,11
72,47,47,47,111,44,44,45,44,49
74,45,44,43,46,42,43,43,10,46
77,51,48,48,52,48,48,50,10,51
79,45,43,43,114,42,42,43,42,45
76,48,48,47,114,45,47,47,9,50
43,24,26,25,25,25,39,38,21,19
49,44,44,44,44,42,43,42,9,46
78,45,44,45,112,43,43,43,40,48
53,49,45,45,48,44,46,47,15,52
48,48,47,9,10,45,44,45,12,51
80,46,46,46,46,44,44,45,10,46
77,47,46,45,46,44,44,45,9,48
74,43,42,43,48,42,43,42,43,44
73,48,46,46,49,45,45,46,10,48
79,47,47,46,48,45,46,46,9,48
79,8,8,8,9,8,8,8,12,8
78,47,46,46,48,44,45,46,10,47
76,58,56,53,57,46,55,56,50,58
85,46,47,46,49,45,45,46,46,48
71,47,47,48,52,44,44,46,46,48
71,46,46,46,49,43,46,44,10,48
78,47,46,47,48,44,47,46,9,49
73,48,50,48,112,44,47,47,43,111
71,46,45,45,111,43,45,45,43,47
79,41,41,41,43,40,40,41,8,43
53,48,47,47,49,45,46,47,11,49
71,44,45,44,46,42,44,44,9,47
74,47,47,47,47,43,46,46,43,111
78,50,51,50,116,47,50,51,47,52
75,45,45,45,46,43,44,44,10,47
81,47,47,47,50,47,48,47,10,50
69,49,50,47,50,45,46,47,46,49
71,47,47,47,48,45,46,46,10,49
74,46,46,45,46,44,45,44,109,48
78,45,44,43,45,42,43,43,11,46
70,53,54,53,54,50,61,62,47,59
72,49,47,47,49,45,46,47,11,49
66,45,45,45,112,43,44,45,45,47
74,56,54,54,56,53,53,55,52,56
73,48,47,45,52,41,45,46,20,49
70,47,48,48,112,44,45,46,44,111
73,42,43,42,46,41,43,42,11,45
83,46,46,46,47,44,46,46,10,47
74,45,45,46,46,44,44,45,12,45
68,44,42,44,44,40,41,42,45,47
49,36,29,29,33,25,33,35,18,51
76,47,48,48,50,44,45,46,10,50
80,45,45,45,47,44,44,45,10,84
71,40,43,13,10,9,39,38,19,43
49,41,41,41,41,40,41,42,13,44
74,11,11,10,14,13,10,10,23,12
68,51,50,50,53,46,49,49,48,52
72,42,41,39,46,42,38,39,18,42
48,10,10,10,85,10,10,10,16,14
11,13,62,61,22,26,11,11,23,19
78,47,47,47,48,44,46,46,10,48
49,45,45,45,45,44,44,45,42,47
55,46,45,44,111,44,44,45,43,47
71,49,49,50,51,46,53,49,10,82
76,49,49,47,115,47,47,48,46,49
44,12,12,14,17,21,41,41,17,14
71,45,44,44,44,41,42,43,14,46
72,40,33,47,48,15,34,35,10,41
66,48,49,47,49,46,48,46,10,50
75,50,49,49,51,46,50,48,46,51
47,9,8,9,9,8,8,8,14,10
76,45,46,46,49,44,45,45,9,48
74,46,45,45,48,43,44,44,8,47
57,45,46,42,45,37,42,39,16,49
76,46,44,44,46,43,45,44,9,46
73,57,57,57,59,53,61,62,49,67
75,47,46,46,48,44,45,46,9,48
72,46,47,46,112,45,45,46,45,111
75,46,46,45,48,43,44,44,42,47
74,45,43,43,45,40,42,43,40,44
77,50,51,49,51,47,49,49,47,51
77,51,51,51,116,48,50,51,49,51
76,44,44,44,46,42,42,43,9,46
76,46,46,46,112,43,45,45,9,49
75,36,20,19,10,10,33,33,44,38
75,50,52,51,52,48,52,53,10,54
80,49,49,49,50,47,49,50,10,51
75,47,48,46,113,44,47,46,44,49
79,49,50,48,51,47,48,48,10,49
83,46,45,46,47,44,44,45,15,10
77,46,46,46,9,43,45,44,13,9
75,46,46,46,50,45,47,45,9,48
74,44,44,41,44,46,41,44,42,44
70,50,51,49,112,45,50,49,44,111
40,55,56,56,56,55,55,57,51,50
75,56,57,57,58,53,53,54,10,59
71,47,49,47,49,45,46,47,45,49
83,44,43,43,46,41,42,42,8,44
51,47,48,47,50,44,46,47,108,49
77,45,44,44,45,42,44,44,9,46
44,9,9,9,9,8,8,8,15,9
67,77,78,78,81,74,74,74,15,80
75,62,61,61,65,54,62,61,47,66
71,44,43,44,45,43,42,43,11,45
9,68,68,68,72,71,65,67,72,71
75,46,46,46,47,43,46,45,10,48
75,46,46,46,46,45,46,45,9,48
71,45,45,45,46,44,45,45,9,47
70,55,53,53,55,48,55,55,46,58
83,48,47,46,49,45,45,46,10,48
78,45,44,44,113,43,44,44,9,47
77,46,44,44,46,43,43,44,10,46
78,45,45,44,47,43,44,44,9,47
76,63,57,53,9,49,60,61,10,9
59,45,43,43,45,40,43,44,39,111
78,43,43,43,44,41,43,43,9,45
78,43,42,42,44,40,42,42,11,44
69,49,50,49,52,46,49,48,45,51
79,47,46,45,47,44,45,46,10,48
78,45,45,45,113,42,45,45,42,112
54,48,48,48,49,44,47,46,10,50
73,41,39,39,49,39,39,39,11,45
65,67,64,69,77,81,64,64,80,72
70,43,41,10,11,40,40,41,16,45
77,57,52,52,115,49,54,55,48,114
78,46,45,45,46,44,44,45,8,47
69,46,45,45,47,43,43,44,11,47
72,41,39,39,40,38,39,39,5,41
76,46,47,45,112,43,44,45,44,112
46,43,42,11,11,11,42,40,14,45
78,47,46,48,114,44,48,47,8,49
78,45,44,44,45,42,43,44,10,46
69,47,45,45,47,44,45,45,11,47
77,44,44,43,46,39,43,41,12,46
78,52,53,53,52,49,52,51,10,55
72,47,48,47,49,46,47,48,13,49
71,47,48,45,48,45,45,45,10,50
71,75,57,57,83,54,67,69,10,76
69,52,53,49,52,47,49,50,43,52
74,47,47,47,49,44,46,46,44,49
70,44,38,39,50,46,38,42,22,43
68,47,44,45,45,44,46,44,14,52
58,46,46,47,113,42,43,45,42,49
79,50,49,48,51,47,48,48,10,51
48,44,43,111,113,41,42,43,110,112
72,47,45,45,47,44,44,44,12,47
46,45,42,10,12,10,42,43,16,10
45,62,61,64,68,61,59,59,70,65
77,49,49,48,113,45,46,47,45,50
74,46,46,46,46,44,46,45,10,46
76,44,43,43,46,42,44,44,9,45
79,42,41,40,50,41,41,41,17,12
76,44,41,41,45,41,41,43,12,44
74,44,43,43,45,41,43,43,8,45
76,45,44,44,46,42,44,44,10,46
79,49,49,49,49,47,48,47,10,50
83,47,48,47,50,45,45,46,10,50
40,54,55,57,59,58,52,54,64,55
81,50,50,50,50,46,49,49,10,50
77,46,45,45,46,43,44,45,9,84
44,17,13,12,17,20,40,39,19,51
52,48,47,46,110,46,45,48,16,48
64,50,49,49,49,45,51,53,45,51
47,45,44,42,10,42,43,43,10,46
42,46,46,48,51,43,42,45,50,49
78,45,45,46,114,43,46,44,11,45
68,46,46,45,47,43,45,46,44,48
75,46,46,45,48,44,46,45,110,48
9,73,74,74,77,70,71,72,19,17
47,44,44,44,47,42,44,45,11,47
56,49,48,48,113,47,48,49,47,50
71,45,45,45,48,43,43,45,44,46
77,50,48,48,50,47,47,48,46,50
74,47,46,46,48,44,46,45,9,48
74,45,46,45,48,44,45,45,10,48
70,43,42,43,46,42,42,42,11,44
76,10,39,12,16,23,9,9,17,13
48,46,44,44,46,43,43,44,9,46
40,50,22,21,24,17,37,35,14,50
73,44,44,43,46,41,43,42,43,46
80,50,48,48,51,46,48,49,10,51
80,44,44,44,45,43,44,45,9,46
76,45,45,44,47,43,44,44,109,47
70,49,48,48,53,47,47,48,47,49
76,45,45,45,48,43,44,44,44,47
39,49,52,57,58,51,38,38,61,50
64,49,50,50,115,46,49,49,46,114
76,7,7,7,11,7,42,43,13,9
47,44,42,42,44,40,42,43,40,44
48,43,43,43,45,40,40,41,8,45
75,44,44,44,45,43,43,44,10,45
74,45,45,43,46,43,44,44,10,46
74,47,48,48,46,42,46,45,18,50
44,56,20,20,20,16,24,24,106,56
71,48,47,46,49,46,47,47,10,49
78,47,48,48,113,45,46,46,47,50
45,62,63,62,63,63,60,60,75,59
65,27,28,27,28,77,37,38,76,75
74,48,50,50,54,46,51,47,50,52
52,48,48,52,53,46,46,47,49,52
81,49,48,48,49,46,48,48,9,49
44,14,14,15,16,19,13,13,18,15
75,45,44,44,46,43,44,44,9,46
75,46,46,46,47,43,44,45,9,46
77,42,40,41,12,12,39,39,14,43
81,42,42,42,42,40,41,40,12,42
79,43,42,42,46,41,42,43,9,44
72,46,46,46,46,43,46,45,42,47
74,49,47,47,47,44,46,47,11,50
51,47,40,42,111,38,41,41,22,49
70,43,37,40,42,42,39,37,40,44
77,44,44,44,44,42,43,44,11,47
74,45,43,45,50,42,43,43,50,49
41,15,12,12,12,11,13,15,12,16
70,50,51,49,113,47,47,48,46,112
70,49,50,49,52,47,48,48,47,52
78,42,43,43,44,42,42,42,8,45
73,43,44,44,45,42,42,42,13,45
68,46,44,44,46,44,45,44,9,46
71,40,37,49,48,17,36,36,15,40
73,47,45,45,46,44,46,45,10,49
69,46,50,47,47,43,46,46,44,46
53,48,47,46,50,45,45,46,11,49
54,46,42,44,41,43,43,46,16,52
66,51,51,50,51,46,49,50,46,52
78,45,45,44,48,43,46,44,9,48
44,46,42,44,48,43,43,42,16,49
44,9,9,9,10,9,40,40,14,10
72,45,44,43,46,42,43,44,10,44
71,49,49,49,52,46,48,49,11,50
66,55,52,51,54,47,56,57,45,62
68,53,51,51,55,47,54,55,47,56
77,47,45,45,113,44,44,45,9,48
77,44,43,43,44,42,43,43,9,47
68,43,41,41,42,41,41,41,11,44
76,48,48,48,113,44,47,47,45,112
79,48,48,47,114,46,48,48,9,81
68,48,48,48,112,46,46,47,46,49
72,45,43,44,45,43,43,44,9,45
77,46,45,46,46,44,44,45,9,49
56,46,47,46,50,45,45,46,46,49
75,46,46,46,49,44,46,46,11,48
70,48,49,49,50,45,48,48,44,110
42,48,53,53,54,28,40,39,10,46
63,70,72,72,74,70,69,69,75,71
106,46,46,48,112,44,43,45,47,111
78,44,44,45,45,44,44,45,10,46
76,47,47,47,49,44,46,45,9,49
70,50,50,50,50,45,58,58,44,63
65,54,54,54,58,50,56,57,44,57
70,47,48,47,50,45,47,48,44,49
82,48,47,47,10,46,47,47,11,10
77,49,49,49,51,46,48,48,10,49
78,45,46,45,114,44,47,48,9,48
79,42,42,42,44,40,41,41,40,42
72,45,44,44,47,43,43,44,10,46
78,47,46,47,48,44,45,46,10,47
76,45,45,44,47,42,42,43,109,46
76,47,46,46,48,45,45,46,10,48
48,44,44,41,44,11,44,43,16,47
61,48,49,47,113,45,45,46,11,51
51,45,44,43,42,42,44,45,12,46
77,48,45,45,47,45,45,46,10,47
72,43,43,43,44,41,42,43,10,44
75,44,43,43,44,41,42,42,10,45
67,45,46,46,47,44,45,45,43,48
71,44,43,39,43,39,43,42,14,79
77,45,45,45,45,44,44,45,9,46
120,35,36,36,39,37,36,37,37,37
52,44,42,42,46,41,41,43,15,44
44,46,11,12,12,11,43,42,15,49
66,49,49,48,51,45,47,48,44,50
80,85,46,44,48,44,82,83,11,9
75,46,45,45,48,44,45,45,109,47
51,47,45,46,49,43,46,44,15,49
76,42,43,43,44,41,42,42,10,45
49,45,45,43,47,42,44,43,12,46
65,52,50,50,113,46,52,50,46,112
76,46,46,46,112,42,45,44,109,48
46,52,53,53,56,53,51,51,58,53
69,58,58,52,113,48,63,57,48,112
73,46,46,46,47,44,46,45,44,49
72,50,52,52,53,50,19,21,51,49
76,45,45,45,47,43,45,45,9,47
48,44,43,44,45,43,43,43,10,46
82,45,45,44,47,42,42,43,9,46
77,42,42,42,44,41,41,41,8,44
74,45,41,41,44,40,45,43,13,45
75,46,46,45,47,44,45,45,110,47
79,42,43,42,44,42,43,44,9,45
75,50,48,48,51,46,51,49,10,53
78,43,43,43,44,41,43,42,9,45
54,47,44,43,47,42,44,45,42,46
72,43,42,43,44,40,40,41,14,43
79,45,45,43,46,42,42,43,8,47
51,43,43,44,44,42,42,43,10,44
77,47,48,48,50,46,46,46,9,50
73,48,49,49,49,46,48,47,9,51
70,48,48,48,51,46,47,48,46,50
81,45,43,40,44,39,42,44,20,42
52,47,46,45,47,44,45,46,108,47
24,49,85,84,61,69,46,47,63,49
80,49,49,48,50,46,47,48,45,50
78,44,44,43,114,42,43,43,8,45
70,76,30,30,82,82,42,72,80,78
81,49,49,49,50,48,49,49,10,50
73,50,48,47,47,47,47,45,48,50
47,45,43,43,47,42,43,41,13,45
73,46,46,46,48,44,44,45,10,48
74,42,41,40,43,39,41,41,19,42
76,43,42,42,9,42,42,42,9,9
77,45,46,46,113,43,45,46,44,48
43,16,14,13,18,14,14,15,18,41
82,46,44,44,45,43,43,44,10,46
75,81,59,58,85,54,72,76,10,82
71,9,42,9,11,9,44,42,14,10
81,43,44,41,45,41,42,43,11,44
81,45,45,45,46,42,44,43,9,83
70,49,50,46,50,45,48,47,10,50
77,46,46,46,47,44,45,45,9,82
86,46,46,46,46,43,44,44,10,46
70,47,47,47,114,45,47,48,44,48
76,46,46,45,46,44,45,45,10,47
66,43,40,45,51,40,39,42,13,47
56,46,44,44,45,40,45,44,19,48
75,45,45,44,47,44,44,45,10,46
72,47,47,47,112,44,46,45,43,46
69,45,43,46,45,43,44,44,10,49
82,43,43,43,45,41,42,42,9,45
77,45,45,45,113,43,45,45,9,47
12,45,42,40,52,44,41,43,25,26
39,55,57,57,59,60,54,55,59,54
75,48,48,48,49,45,46,47,10,48
78,44,42,42,10,42,43,42,10,44
75,45,43,43,10,42,42,43,11,45
71,38,15,10,18,13,35,36,18,41
77,46,46,46,46,44,46,45,45,47
51,51,48,49,56,49,48,49,61,53
77,46,46,46,113,43,46,45,9,46
73,45,43,43,47,41,42,43,10,45
76,44,44,44,47,43,45,46,8,46
63,52,53,49,51,49,49,50,9,49
77,46,46,46,48,45,48,46,9,49
81,47,47,47,49,44,45,46,10,49
77,45,45,45,46,43,43,44,9,47
79,45,46,45,46,44,44,45,10,47
70,46,46,44,47,45,44,45,9,47
71,46,47,47,48,45,45,46,10,50
74,47,46,46,49,44,44,45,16,11
70,50,49,49,50,48,48,49,10,51
78,43,42,42,45,41,42,42,10,43
72,43,43,42,46,43,42,41,10,45
66,46,47,44,48,43,46,46,43,111
72,48,49,47,111,46,46,47,45,49
75,45,46,45,46,43,44,43,42,45
71,20,25,20,25,15,21,19,16,24
49,76,75,77,77,71,46,47,83,54
70,46,46,46,48,43,45,46,10,46
71,44,44,44,10,41,46,44,12,8
50,41,41,38,42,34,40,41,11,46
70,49,48,46,49,45,47,45,43,47
79,50,50,50,53,46,49,48,46,53
70,44,41,11,14,13,42,40,21,46
75,46,47,44,49,44,43,44,10,49
74,45,44,44,46,43,44,45,109,46
71,50,50,50,53,47,49,49,11,52
78,46,46,46,114,44,45,46,9,48
73,45,44,44,48,42,44,45,16,46
73,47,48,46,47,44,47,48,43,47
76,48,47,44,48,44,45,46,10,51
76,45,45,45,46,43,44,43,8,46
74,44,44,43,45,41,43,43,10,45
68,48,48,46,48,45,46,46,10,49
72,51,51,48,51,46,46,48,11,52
73,46,45,45,112,43,47,45,10,47
48,45,43,43,45,42,44,43,9,45
47,42,42,42,43,39,41,42,9,44
72,44,44,44,44,42,43,42,15,46
44,43,36,29,53,16,40,38,15,44
51,46,46,46,48,43,45,44,9,47
80,44,43,45,43,42,43,43,13,46
79,43,42,42,44,42,78,42,9,84
78,47,47,47,113,45,46,46,44,111
73,72,73,72,72,40,69,65,45,75
66,51,51,50,53,48,50,49,47,53
72,47,47,47,51,46,47,48,11,48
73,49,49,49,52,48,49,49,10,50
77,50,48,48,50,47,49,49,44,50
75,47,46,46,48,44,45,45,109,48
74,46,47,47,47,45,46,45,10,48
79,44,43,43,45,41,43,43,9,45
68,45,44,42,46,42,43,44,11,45
80,10,10,10,11,10,45,45,11,10
79,45,45,45,46,42,44,44,9,47
72,87,87,88,92,84,84,86,92,91
72,46,45,45,48,43,43,44,12,47
78,43,43,43,45,42,42,42,9,45
83,48,48,47,50,46,46,47,11,49
68,49,49,43,111,43,48,49,9,111
77,47,48,47,114,45,47,47,45,50
80,48,48,48,115,45,48,48,46,51
48,45,44,44,46,43,43,44,10,46
68,9,9,13,17,21,9,9,17,13
74,49,48,49,49,46,48,47,10,81
78,45,45,45,49,44,44,45,10,47
43,12,11,11,20,15,11,11,15,14
47,44,43,43,14,43,42,43,15,11
45,43,42,10,10,9,42,42,11,10
78,43,44,44,113,41,43,43,9,46
75,42,42,9,10,9,41,42,10,10
52,48,48,48,49,45,47,46,12,50
78,45,45,43,46,43,44,45,8,46
77,47,47,47,48,44,45,45,8,49
74,44,44,45,44,42,44,43,11,44
76,45,45,45,49,43,44,44,9,47
75,47,48,48,49,44,45,46,10,47
75,54,52,50,54,47,53,52,47,52
77,46,46,46,113,44,45,45,9,48
72,46,47,47,51,44,46,45,10,49
69,45,45,45,47,43,43,44,43,46
76,47,47,47,47,44,45,46,9,49
71,44,42,44,44,42,42,43,10,48
70,48,49,48,48,46,46,46,43,48
74,47,48,48,48,44,46,46,9,50
42,79,77,77,77,77,77,77,77,77
76,46,45,45,47,44,45,45,10,47
71,48,49,48,51,47,47,46,10,9
79,48,48,47,48,46,46,47,10,50
71,45,44,45,48,44,44,43,9,47
67,46,46,43,44,43,43,44,10,44
73,43,53,53,51,43,37,36,10,43
77,45,45,44,46,43,45,44,9,47
72,46,44,43,46,43,43,44,10,46
56,43,44,43,47,42,42,42,42,46
74,48,50,48,52,44,47,47,43,50
60,46,44,40,108,41,42,44,14,46
79,45,44,45,45,43,44,44,10,46
78,44,44,44,46,42,43,43,9,46
72,52,53,51,52,47,50,50,10,55
74,46,46,44,47,43,45,44,9,47
42,42,40,40,46,40,39,40,48,45
71,59,60,60,56,56,56,57,51,62
76,9,9,9,11,8,42,42,13,9
69,45,44,44,48,42,42,43,10,48
66,48,48,46,49,45,46,47,42,49
81,47,46,48,48,45,46,46,10,48
76,48,48,48,50,45,47,48,8,50
78,44,44,44,45,42,43,43,9,47
37,45,49,50,51,51,41,38,54,45
10,13,44,44,18,24,43,43,20,16
72,47,48,48,48,44,46,46,9,49
40,44,52,51,52,21,39,38,11,44
50,46,46,45,46,44,44,45,109,48
40,51,51,20,52,14,38,35,15,51
46,41,31,31,28,20,36,39,18,46
71,71,74,73,77,70,64,70,73,75
75,46,45,45,47,43,44,45,9,47
72,46,46,46,49,44,45,46,11,48
75,46,47,47,113,44,47,45,43,49
76,50,49,49,50,47,47,48,11,51
70,45,43,46,46,43,45,43,10,45
68,80,81,81,85,78,77,78,80,80
74,46,46,46,47,43,44,44,10,47
79,48,49,46,48,46,47,46,9,51
74,46,47,44,47,43,43,45,14,47
79,45,43,42,10,41,42,41,17,45
74,45,45,45,46,44,46,45,10,46
73,47,45,45,45,45,46,44,10,48
22,79,81,80,83,77,76,78,76,78
53,46,44,44,47,43,43,44,15,46
79,46,46,46,114,44,45,45,9,49
74,45,45,45,112,44,44,46,44,111
78,45,46,46,47,42,44,43,10,46
77,45,44,43,46,42,43,43,43,46
41,40,39,40,47,57,39,39,68,43
76,47,46,45,48,44,45,45,9,47
73,45,46,46,48,44,47,46,9,48
70,53,53,51,52,49,52,52,10,55
78,42,43,43,44,41,41,42,9,43
75,61,60,59,59,45,64,62,44,73
77,44,44,44,45,43,44,44,8,46
74,46,46,46,48,45,46,47,10,47
47,45,44,44,45,43,44,44,9,45
72,58,57,57,58,52,57,58,48,61
68,49,50,47,54,46,48,47,47,52
46,43,43,43,9,41,42,43,9,44
71,45,46,44,48,44,43,45,12,46
73,58,55,55,56,51,64,64,45,111
72,44,44,44,47,44,44,43,8,46
69,43,41,44,48,40,43,41,16,46
74,47,48,47,49,46,47,48,10,50
73,50,50,50,52,49,50,50,10,81
72,55,55,55,58,51,54,53,47,57
78,48,47,46,50,46,46,47,10,49
72,48,49,49,51,45,46,47,10,51
71,47,48,45,49,44,44,45,41,47
74,41,41,39,46,41,38,39,15,44
74,46,46,46,48,44,45,46,44,48
76,46,46,46,113,44,45,46,9,112
49,45,44,46,44,42,44,44,9,48
76,44,45,45,48,43,43,44,10,47
80,47,48,47,50,46,47,47,47,50
47,43,43,42,43,40,42,43,12,45
49,58,60,61,62,62,58,58,70,58
73,49,33,32,17,17,46,43,17,51
72,48,40,41,45,40,46,39,17,44
78,40,38,10,10,10,37,39,12,41
70,47,46,44,81,44,44,45,13,77
81,49,48,47,116,47,47,47,10,50
77,50,50,50,50,48,49,50,10,50
74,44,45,45,45,43,44,44,10,47
67,47,47,47,112,44,46,47,10,49
74,46,47,47,48,44,46,46,9,47
84,43,44,44,46,40,43,44,15,9
67,44,42,42,42,41,41,39,36,42
77,48,49,49,52,47,48,48,11,52
76,45,45,45,46,43,44,45,110,46
78,44,44,43,47,42,42,43,9,45
69,43,41,43,48,42,42,41,13,43
52,49,49,49,50,47,48,48,10,52
70,44,45,45,45,42,43,43,9,46
76,10,10,10,10,10,44,42,15,11
67,46,45,45,47,44,44,44,10,47
77,47,44,46,45,43,45,45,11,50
83,41,42,41,46,39,40,41,15,44
78,45,45,45,46,45,43,43,47,48
74,45,44,45,46,43,44,44,12,46
72,49,49,49,111,46,47,48,44,110
78,45,44,44,46,43,43,44,12,46
43,42,40,40,51,44,40,41,57,46
8,41,40,40,86,23,40,39,18,15
81,50,50,48,50,47,48,49,10,81
69,46,44,42,43,41,46,44,14,48
75,48,47,47,49,45,47,46,109,49
44,38,26,21,25,16,35,36,11,49
77,45,45,44,45,43,43,44,10,46
85,47,47,47,49,45,46,46,9,48
77,43,43,43,43,40,43,41,9,46
42,44,28,27,51,14,39,39,11,45
78,45,46,46,47,43,44,45,11,48
75,47,45,45,46,44,44,45,11,47
64,47,46,45,112,44,44,45,44,111
80,46,47,47,48,45,45,45,11,47
78,46,44,44,47,43,43,44,8,46
78,46,46,46,113,43,46,45,43,48
76,43,43,43,43,41,43,42,8,45
69,45,44,43,46,42,41,44,11,46
41,54,55,55,55,53,65,64,52,71
48,44,44,44,45,42,44,43,9,46
79,9,45,10,10,42,44,44,13,10
76,64,61,59,59,55,63,63,48,68
81,46,46,46,46,44,46,46,9,46
38,42,41,55,54,57,38,40,78,44
72,47,46,49,53,45,43,46,42,48
77,46,46,46,48,44,45,46,9,48
74,46,45,46,47,44,44,44,43,47
78,44,45,45,112,42,44,44,8,47
75,42,41,41,9,40,41,42,9,78
79,44,44,43,45,40,43,44,9,45
47,46,38,38,54,27,42,41,18,48
78,43,43,43,46,42,42,43,8,46
57,51,49,49,113,48,48,49,9,52
77,44,44,44,45,42,43,43,10,45
69,53,54,52,54,48,52,53,46,53
43,44,40,10,16,16,39,40,15,47
71,46,45,45,47,45,45,46,45,47
77,47,46,46,8,45,46,46,8,48
82,46,45,45,48,45,45,46,10,47
72,48,48,47,48,46,46,46,10,80
71,61,59,55,58,51,59,59,47,64
45,44,43,43,45,41,42,42,12,45
71,76,77,77,8,72,72,75,8,76
11,22,24,24,27,20,10,10,24,19
67,45,46,45,48,43,45,46,9,78
71,58,58,11,59,10,63,63,10,69
74,49,48,49,49,48,48,48,11,81
46,44,42,43,40,40,39,42,43,46
79,46,47,46,48,44,46,47,10,48
45,43,41,41,42,40,41,41,108,43
43,56,60,60,61,53,64,65,53,52
70,48,48,49,50,46,47,48,9,49
71,46,44,44,55,44,43,42,51,47
70,43,43,40,43,34,39,42,16,10
69,52,51,51,10,49,61,51,11,10
79,46,46,46,48,45,46,47,10,49
72,50,51,47,50,47,47,48,46,49
85,50,50,50,51,48,51,50,10,51
77,46,46,46,46,44,45,45,9,49
74,50,49,49,50,47,50,50,46,50
76,45,45,45,112,44,44,45,10,47
37,65,63,64,71,64,62,63,72,68
74,46,45,44,113,43,43,44,110,46
79,46,46,46,114,43,45,45,43,113
44,70,56,56,78,26,67,67,23,74
72,43,42,40,111,40,40,41,20,46
75,46,45,44,47,44,44,44,10,46
70,46,46,46,50,44,45,45,10,48
81,45,44,44,45,43,44,44,9,83
75,46,45,45,46,43,44,44,44,46
9,9,44,11,85,9,9,9,15,11
67,44,44,43,47,43,43,42,44,47
67,43,42,42,45,40,43,41,10,45
9,9,9,14,81,21,9,9,17,14
75,45,45,44,47,43,44,44,43,47
68,46,47,47,47,44,44,45,11,47
81,46,45,44,46,43,44,44,10,49
77,47,45,45,48,43,45,45,9,49
72,10,42,45,45,41,40,42,17,10
77,45,44,44,113,43,43,44,43,46
74,46,45,45,47,43,45,45,9,46
79,39,36,30,9,17,36,38,11,43
67,44,44,40,45,44,40,44,41,44
69,46,45,47,46,43,45,44,11,49
69,49,48,48,48,46,47,48,44,51
78,46,46,46,113,42,43,44,9,47
75,44,43,43,45,43,43,43,10,45
78,47,47,46,47,45,45,45,10,48
71,48,49,46,111,45,48,46,46,51
79,49,48,48,52,47,48,48,10,50
67,48,48,48,113,46,47,47,9,48
50,42,42,41,44,39,41,42,10,44
69,47,47,47,112,45,46,47,45,50
72,51,51,47,51,46,51,51,46,49
76,51,51,49,115,48,50,52,49,53
81,48,48,48,10,46,47,47,10,50
73,47,48,48,48,44,47,45,10,50
75,45,44,46,46,43,45,45,9,48
48,45,43,43,111,43,43,45,49,46
71,48,48,48,49,45,46,46,10,49
70,9,39,9,9,8,40,39,14,9
76,48,48,47,114,45,48,47,45,50
76,45,45,45,45,41,44,44,10,47
75,43,42,43,48,42,43,41,9,45
76,48,49,49,49,45,48,49,9,48
79,45,45,45,46,44,45,45,9,47
69,23,24,24,27,21,19,21,20,76
52,46,45,45,47,43,44,45,43,47
51,47,48,48,50,46,46,46,12,50
79,41,40,40,41,39,39,40,16,81
72,51,52,50,53,47,50,50,47,52
72,43,43,42,44,41,43,42,10,44
67,79,81,81,84,51,62,79,10,81
65,46,47,45,111,43,45,45,44,110
75,45,44,44,45,42,44,45,9,45
46,50,36,26,32,22,39,42,12,44
57,64,66,67,69,65,62,63,72,68
70,47,49,45,45,41,45,43,45,48
47,44,44,41,41,33,41,41,37,46
32,38,37,37,40,39,37,37,51,39
69,47,45,45,47,44,44,45,12,47
80,48,48,47,48,45,46,46,10,49
72,46,45,45,46,44,45,44,45,47
72,46,45,46,50,45,45,46,13,47
78,51,50,50,113,48,49,50,10,112
51,46,45,46,46,43,46,45,9,47
66,75,80,79,82,76,63,63,109,75
17,9,8,8,9,8,8,9,13,17
77,46,47,46,113,43,45,45,8,48
80,50,49,49,115,47,51,49,9,51
47,77,40,78,82,24,40,41,20,79
68,58,56,56,55,50,60,59,46,63
75,46,46,46,46,43,43,44,9,48
72,48,47,47,46,46,46,46,11,51
77,47,47,47,47,44,45,46,9,49
81,44,43,43,9,41,43,43,10,45
72,44,43,43,46,42,43,44,42,45
75,46,46,46,47,44,46,45,9,47
75,45,44,44,10,44,44,45,12,46
72,42,36,36,38,24,38,41,15,46
80,81,46,46,48,45,47,47,10,83
71,46,45,45,45,43,44,44,9,49
75,43,42,42,44,42,42,41,12,44
77,46,45,46,49,44,45,44,11,48
77,8,8,9,9,8,8,8,14,9
74,42,41,42,42,41,41,40,16,43
46,43,42,10,10,9,42,43,14,10
83,44,44,42,46,42,42,43,9,46
70,48,49,46,49,45,47,46,45,49
44,21,19,16,20,19,19,19,16,19
80,45,43,43,46,42,43,44,10,44
81,44,44,44,46,42,42,43,9,46
74,46,44,44,48,43,43,44,12,46
73,45,45,46,47,43,44,44,11,47
42,54,56,53,56,53,56,54,51,53
58,47,48,47,113,45,47,46,46,50
71,61,55,53,56,49,59,60,44,64
78,48,47,47,50,46,46,47,10,48
75,47,48,46,47,44,44,45,44,48
92,89,81,80,84,75,86,84,44,92
74,47,46,47,48,45,45,46,9,48
75,48,47,46,113,45,45,46,46,50
75,45,45,46,46,43,45,46,10,46
73,44,44,44,45,42,43,43,9,46
52,47,47,47,112,44,47,48,9,49
72,47,50,48,51,46,48,47,10,51
46,42,42,42,42,41,41,41,10,44
70,13,13,14,13,10,14,12,10,17
78,44,44,43,113,41,42,43,42,46
49,41,40,40,42,39,40,41,10,42
83,47,47,47,49,45,47,46,10,49
90,78,79,78,82,76,85,87,36,93
77,48,49,48,113,45,46,46,9,112
43,43,41,40,48,38,40,41,10,45
73,45,55,45,48,44,44,47,50,45
72,44,37,38,55,19,44,42,16,45
55,47,48,48,50,45,47,48,10,50
75,69,65,66,67,61,68,67,55,67
41,59,59,58,60,58,67,68,57,54
75,56,57,53,56,51,55,61,11,56
75,46,46,46,48,43,44,45,9,48
41,51,51,51,52,52,48,48,54,48
80,49,48,48,50,46,46,47,10,50
75,46,45,44,47,44,45,45,44,46
68,47,48,47,113,44,44,45,12,47
73,43,42,40,41,40,40,41,16,46
71,46,47,46,48,43,45,46,9,48
43,61,58,61,70,71,58,58,17,66
71,45,43,42,46,41,41,43,12,45
76,47,46,46,112,44,46,46,110,112
83,47,48,47,50,45,46,46,45,48
79,43,43,44,44,42,42,43,9,45
78,43,42,41,43,40,41,42,9,43
57,47,41,36,56,43,43,47,11,42
46,44,42,44,10,42,44,44,10,46
52,45,45,45,112,42,44,45,42,111
70,45,45,45,47,44,44,44,43,48
76,44,44,43,46,42,43,43,9,46
52,47,47,47,49,45,46,46,10,49
76,44,44,44,45,43,43,44,10,45
81,46,45,45,46,44,45,45,10,46
9,21,25,23,22,21,9,9,18,16
78,45,45,44,45,41,44,43,9,45
74,45,44,44,48,43,45,44,10,46
46,14,25,23,25,19,10,13,17,15
78,44,43,43,44,41,42,43,9,45
76,44,43,43,46,42,43,43,10,45
74,47,45,44,46,43,44,45,109,47
45,45,40,26,13,12,41,40,14,45
49,48,46,46,49,45,45,46,11,49
67,47,47,47,48,45,46,47,109,49
42,46,28,26,52,21,42,40,15,49
64,46,45,45,48,43,45,43,41,47
78,47,47,47,48,46,46,47,9,49
42,11,11,18,53,12,11,11,18,12
71,45,43,42,45,43,42,43,13,45
75,44,44,42,45,41,43,44,10,45
71,52,52,50,52,47,52,53,47,52
52,46,45,45,46,43,45,45,13,47
78,45,44,44,45,43,44,45,8,46
75,45,43,43,44,42,43,43,14,44
80,46,46,47,48,43,45,44,9,47
82,46,45,43,47,42,43,44,9,47
52,45,46,46,10,44,45,45,11,10
82,44,45,45,47,42,42,43,10,45
74,48,48,47,51,45,46,47,10,50
71,48,45,41,41,41,46,46,29,51
56,67,86,68,85,68,67,67,68,70
43,42,40,41,10,9,41,40,10,45
51,43,35,34,38,33,40,44,107,52
81,46,46,46,115,45,45,45,9,49
70,49,51,50,111,45,48,48,45,110
74,48,46,46,48,44,45,46,43,47
77,47,48,48,49,45,44,45,10,49
72,42,39,10,11,10,40,41,15,46
75,45,44,43,47,43,43,43,10,46
70,43,41,40,44,41,40,42,11,46
69,48,46,46,48,43,47,46,8,48
47,40,41,40,43,37,38,38,15,43
69,53,51,51,54,49,54,53,47,53
69,47,47,47,112,45,46,47,45,111
79,48,49,49,50,46,48,47,10,51
37,43,50,50,51,50,39,42,58,47
44,43,41,9,9,9,41,41,11,9
73,9,41,9,14,41,41,41,15,10
73,44,42,42,45,42,43,43,11,44
67,47,46,47,112,45,45,46,44,111
70,53,54,54,55,49,51,52,48,56
70,49,47,47,51,46,48,47,45,50
23,12,12,12,11,11,17,13,12,18
77,47,47,48,49,46,47,47,9,48
72,48,49,48,51,45,47,48,41,51
69,41,40,35,50,40,39,39,11,43
77,45,46,45,47,43,45,45,9,78
55,46,46,47,111,45,45,45,44,110
76,47,48,46,113,44,45,45,44,50
76,45,45,45,9,45,45,45,10,9
80,48,49,49,51,45,46,46,10,51
66,42,42,40,50,40,40,42,17,46
80,43,43,43,44,42,42,42,14,43
72,47,45,45,47,44,44,45,9,47
63,58,57,52,111,48,57,57,46,111
70,48,48,48,49,46,47,47,48,50
77,47,46,46,48,45,45,46,45,48
76,46,46,45,47,44,45,45,10,47
48,42,41,40,41,39,41,41,13,45
72,48,53,41,44,45,49,47,44,110
77,44,45,45,47,42,43,44,9,47
79,47,47,47,114,45,46,46,9,50
109,49,48,47,50,46,47,48,42,50
50,46,46,46,46,43,44,45,14,48
43,18,24,24,26,24,38,39,19,20
59,48,44,48,47,44,43,46,49,51
49,46,44,45,45,43,44,44,12,47
81,46,45,45,47,43,45,44,10,47
80,48,48,48,49,46,46,46,10,49
71,48,48,48,48,46,47,48,10,51
46,45,43,43,45,42,42,43,10,45
70,46,43,44,47,44,42,43,15,45
79,46,47,47,114,44,46,46,45,49
73,47,47,47,10,44,46,46,10,10
77,46,46,46,113,43,45,45,9,47
71,48,48,46,49,44,45,48,45,48
72,47,46,47,47,44,46,45,11,48
49,44,43,43,44,42,44,43,9,45
77,45,43,43,46,42,42,43,11,46
46,47,44,40,55,44,44,42,18,48
69,46,46,46,49,44,46,46,9,48
41,23,57,56,57,53,16,39,20,21
75,45,45,45,46,43,45,44,10,47
78,44,44,44,114,42,42,43,41,46
84,49,47,47,10,46,47,47,11,10
81,43,41,41,42,40,40,39,13,44
71,47,47,46,49,45,47,46,109,49
79,44,45,45,113,42,43,44,8,47
44,44,42,42,49,42,41,42,12,44
41,40,38,36,48,22,37,38,12,41
82,47,46,10,10,45,47,45,11,10
75,46,46,46,47,44,45,45,9,48
64,47,48,48,49,44,45,47,43,48
78,46,45,47,46,43,44,45,41,46
49,37,32,32,36,13,37,35,12,40
51,46,45,44,46,42,43,44,10,46
73,44,44,44,45,43,44,45,8,46
75,47,47,47,112,45,46,46,46,112
71,43,41,39,44,41,41,41,18,44
74,42,42,40,42,40,40,41,11,42
77,45,45,45,49,43,43,43,12,48
44,40,39,38,30,22,39,41,18,41
81,44,43,43,45,42,42,42,9,45
53,46,47,47,111,45,46,46,10,47
76,44,44,43,44,42,42,44,9,46
70,47,46,46,50,45,45,46,10,48
75,47,47,46,47,45,47,46,10,48
78,43,42,43,113,41,42,43,9,44
74,48,48,48,50,47,47,48,11,82
17,85,84,83,83,76,82,83,45,88
50,46,46,46,112,44,46,45,45,47
70,48,49,46,49,45,46,47,45,51
75,48,49,46,50,45,45,46,10,50
76,47,47,47,47,45,46,47,110,47
50,46,44,44,47,44,44,44,9,47
73,46,47,46,46,44,45,44,10,46
78,46,45,44,114,43,43,44,42,47
77,46,46,46,45,43,44,45,11,49
77,46,45,44,48,43,44,44,10,49
50,44,44,44,47,42,42,43,43,47
52,27,30,29,27,26,26,27,25,26
48,47,45,44,46,44,44,45,11,47
78,44,44,43,113,42,43,44,43,45
79,48,48,47,50,46,47,47,9,50
64,40,38,41,45,39,39,39,45,45
66,54,56,54,112,52,52,53,51,110
53,47,48,47,111,44,46,47,9,110
46,56,58,58,60,57,55,55,64,56
78,80,45,45,46,43,44,44,10,83
75,48,46,46,47,45,45,46,108,50
74,47,46,45,112,44,45,45,110,48
80,49,50,48,51,46,46,47,10,50
78,45,46,44,113,42,44,44,9,113
42,18,10,11,21,12,10,13,17,19
75,45,46,45,48,43,46,44,44,48
76,48,47,47,50,45,46,47,10,49
79,51,50,50,52,48,49,49,10,52
70,46,46,46,45,42,45,46,41,111
44,23,21,21,23,16,25,23,14,28
43,12,15,15,13,11,16,20,49,45
75,46,46,46,113,44,46,46,44,111
74,46,44,44,45,43,44,45,9,46
78,41,42,40,42,38,41,40,9,44
68,46,47,47,112,45,46,47,44,111
109,46,46,46,47,44,44,45,43,111
77,47,47,46,113,44,46,45,8,48
72,46,44,43,46,42,43,44,11,47
71,46,46,46,112,44,45,45,45,48
70,51,51,50,53,49,49,50,53,55
78,44,43,43,9,41,41,42,9,45
80,48,48,48,48,46,46,47,11,50
82,45,45,45,46,43,44,45,10,47
71,47,48,48,112,44,49,50,44,111
74,43,43,44,45,43,43,43,10,46
71,52,50,50,50,46,49,50,46,55
79,45,46,44,46,9,42,41,9,46
77,46,47,47,49,44,46,44,43,49
46,42,42,42,111,42,41,44,10,45
73,47,47,46,48,44,45,46,11,48
78,44,43,43,45,42,43,43,8,47
70,44,53,52,52,52,41,39,22,45
68,47,45,44,47,44,46,46,43,46
42,25,28,26,27,25,39,38,75,77
70,48,48,48,50,44,48,45,9,50
71,45,44,43,44,42,42,41,43,45
73,49,47,47,112,44,48,47,44,111
76,48,46,46,113,44,46,47,43,112
74,47,47,47,10,44,46,47,12,10
73,45,45,45,47,42,46,45,10,47
68,44,43,43,50,41,41,43,16,44
67,48,49,48,52,45,47,47,46,51
75,48,47,47,47,45,47,46,9,51
77,45,44,44,45,42,44,44,9,46
78,48,46,46,47,44,47,46,10,47
75,45,44,45,46,42,44,44,9,46
76,47,48,46,50,44,47,46,9,50
80,47,47,47,49,45,46,46,11,49
79,48,48,48,48,46,47,48,10,49
78,49,48,48,52,47,48,48,10,82
76,44,43,42,44,41,42,43,10,78
72,45,28,33,27,23,38,37,18,46
71,50,52,50,110,45,48,49,44,51
44,43,41,39,43,39,42,41,17,42
76,46,47,46,49,44,46,45,9,49
76,45,45,44,47,42,46,45,109,46
69,27,28,28,28,27,35,36,24,25
63,28,29,33,40,28,26,60,34,59
79,43,42,42,44,41,42,42,9,43
71,52,51,48,51,49,48,51,15,51
49,10,10,11,11,10,42,43,14,11
74,80,46,46,10,44,46,46,10,82
45,7,7,7,8,7,7,7,11,8
73,48,48,47,48,46,48,49,10,51
64,47,48,48,112,45,48,49,46,111
85,46,47,46,50,45,45,45,10,48
74,47,47,46,112,45,47,46,46,111
71,47,46,46,48,44,44,45,9,48
44,20,21,17,24,18,38,36,17,47
79,49,49,49,115,47,49,48,46,51
72,47,47,47,111,47,47,48,47,111
74,44,44,44,45,43,43,43,13,9
11,20,23,23,25,20,17,18,19,21
47,44,42,42,45,41,42,43,11,47
76,47,46,46,47,44,46,46,10,47
77,45,44,44,45,43,44,44,9,46
74,10,55,13,14,20,43,10,14,56
78,49,49,48,51,46,48,49,9,51
65,48,46,45,46,44,45,47,9,50
62,45,44,45,112,43,44,44,44,46
71,48,55,47,111,46,45,43,47,110
76,46,45,45,47,44,45,45,9,47
75,47,47,47,48,43,46,45,10,49
78,46,47,47,47,44,45,45,10,48
76,45,46,45,46,43,45,44,11,78
49,43,39,39,42,39,43,41,12,51
71,53,54,50,113,50,50,52,15,111
74,45,44,44,46,42,44,44,11,48
56,56,57,58,62,60,56,56,63,60
67,52,53,49,53,47,55,58,46,60
71,69,54,53,111,50,66,64,46,72
43,24,27,25,27,23,36,34,74,76
68,53,53,53,53,44,53,55,46,59
73,46,44,44,47,44,43,44,11,46
79,47,48,48,49,46,49,49,10,82
71,48,46,46,112,43,45,47,44,111
71,43,43,42,45,41,42,44,10,44
78,45,45,45,113,43,44,44,43,46
74,43,43,44,44,41,42,42,10,45
74,44,43,44,47,43,42,42,14,47
70,47,47,48,48,45,47,48,10,51
83,8,8,8,9,8,45,44,10,8
74,44,43,42,44,42,42,43,12,44
77,43,42,42,44,41,44,44,9,44
73,40,40,36,48,36,36,39,21,44
53,49,49,49,51,47,48,49,10,52
84,48,48,48,48,45,47,46,10,48
67,47,48,48,49,45,46,46,45,50
54,44,43,43,46,42,43,43,9,45
75,46,45,45,45,43,45,45,10,47
73,48,48,48,49,45,47,46,10,48
73,42,39,39,44,39,39,41,40,43
72,45,43,42,45,41,42,43,11,45
44,43,41,43,48,40,39,40,23,45
110,48,49,49,113,45,45,46,41,112
75,46,45,45,46,43,45,44,10,47
70,49,47,47,50,46,46,48,46,49
46,21,39,26,22,22,39,40,20,18
48,10,10,10,10,9,44,44,14,10
69,49,50,49,51,45,48,49,45,111
72,44,42,40,9,9,43,42,11,46
70,58,57,57,58,53,59,58,51,61
82,84,54,9,10,49,81,82,10,9
74,50,47,48,50,46,47,48,12,48
34,39,39,39,43,38,38,38,44,43
70,50,51,51,54,46,49,48,46,53
43,43,27,26,26,20,37,35,19,19
70,47,46,46,112,43,46,45,43,48
79,52,52,52,116,49,53,51,49,115
81,44,43,44,8,42,43,43,10,8
32,39,38,38,42,38,38,38,52,43
80,43,41,42,45,41,41,41,16,44
82,46,46,45,48,43,45,44,9,48
51,45,45,45,112,44,44,45,42,47
75,44,44,44,46,42,43,44,10,46
78,44,44,44,45,43,43,44,8,47
72,50,49,47,50,47,47,50,46,50
71,46,45,47,47,43,43,44,9,49
76,45,45,45,46,42,43,44,110,47
76,9,8,9,10,8,8,8,15,9
50,44,44,44,47,43,44,45,11,46
73,45,45,45,46,43,44,44,8,47
80,51,49,49,51,47,48,49,10,51
78,45,45,45,46,43,44,43,9,47
78,9,42,11,16,9,40,9,15,12
80,49,49,48,48,46,48,47,10,51
78,47,48,48,48,45,47,46,10,47
56,46,45,45,47,43,48,46,109,47
77,48,46,46,48,45,48,47,110,48
50,44,44,44,46,41,44,43,13,46
74,46,46,45,48,43,43,44,10,48
75,46,46,44,48,43,45,44,13,46
84,47,47,47,48,44,45,46,11,50
79,43,42,42,44,41,42,42,9,44
71,49,49,49,50,47,48,49,10,51
79,8,8,8,8,8,39,39,11,8
78,46,46,44,48,43,46,44,10,46
69,47,41,24,25,19,43,42,24,45
69,57,55,55,57,47,54,55,43,60
52,45,42,42,43,42,43,43,12,50
45,43,42,42,113,40,41,42,12,44
76,47,48,48,49,45,46,47,10,50
75,47,47,47,49,46,47,48,9,48
79,44,43,43,45,42,43,43,9,44
50,45,45,45,46,42,45,44,9,46
51,48,47,47,49,46,47,47,9,49
80,47,45,45,10,45,46,46,10,83
78,49,49,49,49,45,48,47,10,52
53,47,47,47,48,43,46,45,10,49
76,45,45,45,47,45,45,46,10,45
79,49,48,48,115,47,48,48,10,50
77,46,46,46,113,44,45,45,45,48
77,46,45,44,113,44,44,45,9,47
69,47,47,45,50,44,44,45,9,49
70,45,46,46,112,44,45,46,43,48
64,50,51,48,50,45,47,48,44,52
69,48,51,49,53,47,51,51,46,53
73,45,43,41,50,44,44,43,11,45
93,89,90,92,95,87,87,88,93,93
79,44,44,44,45,42,44,45,9,46
75,47,47,47,50,44,46,45,46,48
49,47,46,44,11,43,44,42,10,46
78,44,42,45,46,41,43,42,44,46
50,45,45,41,45,41,44,43,13,48
51,44,43,44,45,41,43,42,9,46
73,44,44,44,46,42,44,45,9,46
73,69,69,72,77,68,67,70,71,73
47,46,44,10,11,9,43,44,13,45
70,46,46,47,48,44,45,44,41,48
76,45,42,45,49,42,42,42,16,48
66,47,47,47,48,45,45,46,21,49
75,45,44,44,45,43,43,44,10,46
81,46,47,47,48,45,46,47,44,49
9,9,10,9,17,10,8,8,19,11
74,44,44,44,10,41,44,43,12,47
51,46,45,45,46,43,46,45,9,49
74,46,47,46,49,43,45,45,9,48
66,45,43,43,45,43,42,44,9,45
76,44,44,44,46,42,43,43,9,46
77,46,45,45,48,43,43,45,9,48
78,50,50,50,50,46,48,49,46,50
76,45,44,44,48,44,43,44,10,46
78,47,48,48,113,45,46,46,110,112
79,40,40,40,41,38,39,40,7,42
71,47,47,45,49,44,44,46,11,49
73,45,46,46,46,43,45,45,9,48
78,47,47,47,113,45,46,46,47,50
70,48,50,50,111,44,43,47,38,110
74,48,11,11,53,12,62,63,13,50
73,51,52,52,115,48,50,51,48,114
51,46,46,46,48,44,46,45,10,47
71,42,50,45,43,42,41,42,10,43
76,46,45,45,112,43,46,45,44,111
45,49,41,49,53,42,42,43,16,51
71,45,43,42,43,42,42,43,14,44
73,49,50,50,112,46,48,48,11,111
68,44,43,43,43,41,42,43,10,43
71,45,47,45,49,44,44,48,42,46
47,44,42,42,46,42,43,43,23,44
76,45,45,45,46,44,44,45,109,47
45,43,41,41,111,40,40,39,41,44
41,39,37,36,110,37,37,38,12,43
78,49,50,50,52,46,48,49,9,52
79,49,48,48,115,47,47,49,10,50
69,45,46,46,47,39,35,38,46,46
67,49,49,49,49,44,48,45,10,49
76,44,44,44,46,43,43,44,8,47
80,48,49,49,49,45,47,46,10,51
9,44,39,26,53,21,41,39,20,13
76,46,46,46,48,43,44,44,44,48
77,43,43,43,46,42,42,43,9,45
71,46,47,47,47,42,45,44,11,49
11,73,74,73,73,7,7,8,73,76
71,46,47,45,49,44,43,44,43,47
74,46,45,45,48,43,43,45,43,47
75,46,45,46,46,44,44,44,10,46
67,78,50,50,50,48,66,50,15,78
78,48,48,47,49,46,46,47,10,82
69,49,49,47,50,46,48,48,45,49
41,47,23,23,25,19,35,39,10,47
81,47,47,45,47,45,46,46,10,84
42,41,30,28,29,21,37,38,15,45
73,10,10,10,13,17,10,10,17,10
51,44,44,43,46,42,44,44,13,46
77,45,46,45,113,42,43,44,9,48
73,46,44,44,46,43,43,44,10,46
71,48,47,48,52,45,48,46,47,51
57,46,51,47,51,43,50,50,46,49
77,46,46,46,112,44,46,45,10,48
58,47,47,47,111,45,46,45,47,110
73,45,46,45,47,42,43,44,9,47
73,76,60,60,112,60,67,66,109,79
80,45,45,45,47,43,44,44,10,46
78,50,49,49,52,47,50,49,10,51
76,48,46,46,48,45,45,47,10,78
75,49,49,48,112,46,49,48,47,111
50,44,44,44,46,42,44,43,10,46
77,47,41,44,45,41,45,46,10,43
39,41,23,20,51,18,39,37,15,42
77,47,45,45,49,44,44,44,45,48
50,46,44,43,45,42,45,45,13,47
76,47,47,47,50,45,46,46,46,49
79,43,43,43,44,40,42,42,12,44
78,79,81,91,84,87,87,88,94,80
77,46,46,46,48,45,45,46,10,48
70,53,50,50,52,47,50,51,48,55
74,49,48,48,111,46,46,47,45,50
83,46,47,47,48,45,45,46,10,9
45,42,42,42,44,41,41,42,8,44
77,45,46,46,47,42,44,44,10,47
74,48,45,45,112,45,45,46,44,111
70,49,49,50,51,46,46,47,10,52
68,52,51,50,52,47,51,52,46,53
71,42,41,41,43,41,40,40,45,43
53,50,50,50,111,47,48,49,109,111
68,50,51,50,114,49,49,50,49,52
75,45,44,44,46,42,44,43,10,46
75,50,50,50,52,46,48,48,45,52
44,43,39,40,45,39,39,39,11,44
73,46,45,45,46,43,45,44,109,47
79,46,47,47,49,45,47,46,10,48
65,50,50,50,51,47,49,48,46,52
79,47,48,46,48,45,46,47,112,50
81,44,44,44,45,43,43,43,10,46
74,44,43,43,47,41,41,42,13,47
38,11,13,12,12,11,14,17,10,50
44,42,33,33,52,25,39,39,14,44
77,47,47,47,48,45,46,46,11,49
72,47,46,46,46,44,46,47,10,48
48,44,41,41,45,41,41,42,14,47
75,42,41,41,44,41,41,41,12,44
9,19,23,23,24,19,9,9,20,16
79,50,49,49,51,47,51,49,10,51
76,45,44,44,46,43,43,44,9,46
75,45,45,45,112,43,44,44,44,47
85,50,49,48,10,47,47,49,10,50
70,46,47,46,50,45,45,48,10,48
74,45,44,44,45,42,44,43,10,46
74,47,47,47,111,46,46,47,8,49
47,44,42,42,45,41,41,42,10,46
77,46,46,46,47,42,44,45,9,48
82,44,45,44,47,43,44,43,9,47
78,42,42,41,44,39,43,42,38,43
74,46,46,46,47,43,46,45,10,49
70,46,47,44,49,43,43,44,10,45
74,46,46,46,46,43,46,45,45,49
71,48,48,48,49,46,48,46,10,48
41,44,44,45,53,52,45,44,57,48
75,48,47,47,50,45,46,47,9,51
73,49,49,48,112,47,49,50,47,111
50,46,45,43,47,43,44,45,9,47
78,44,44,42,45,42,43,43,9,46
72,45,43,48,52,42,41,45,11,50
73,46,46,46,48,44,45,45,9,48
84,49,49,49,49,47,48,48,11,51
43,44,22,18,24,21,42,40,14,46
72,47,46,46,47,44,45,46,9,47
85,46,47,47,46,44,45,45,10,47
66,46,45,46,53,45,64,64,75,71
48,43,42,42,43,39,42,40,17,43
77,44,43,43,44,42,43,44,8,45
79,43,42,42,43,42,40,41,10,43
76,45,45,45,46,43,45,44,10,47
28,46,51,51,52,47,46,42,45,47
79,47,47,46,114,45,46,47,10,47
72,45,45,45,49,44,44,44,12,47
53,46,46,46,47,45,45,46,10,47
73,47,46,46,46,44,44,45,10,48
72,45,45,45,46,42,44,43,9,47
72,49,49,47,50,46,46,47,11,49
49,45,45,45,46,43,44,45,109,47
78,46,46,44,46,43,44,44,9,48
73,46,46,46,50,43,47,44,12,48
76,46,45,45,46,44,44,44,10,47
38,41,36,40,36,38,38,36,41,43
73,49,50,49,50,45,47,48,46,111
77,46,47,47,47,45,45,45,9,49
81,30,30,30,37,29,29,29,30,31
40,53,58,59,58,58,55,56,11,53
75,44,43,43,44,42,44,43,11,45
41,45,24,22,26,18,36,38,11,46
70,43,42,42,45,41,41,41,10,45
75,50,49,48,115,47,47,49,48,51
48,42,39,11,15,13,43,40,14,45
69,45,46,45,111,42,48,44,9,47
46,44,42,42,21,24,41,42,21,46
71,46,49,46,50,45,45,45,10,50
74,46,47,46,47,44,45,46,43,49
68,52,51,51,54,49,51,51,47,53
70,50,50,48,52,47,49,50,45,52
75,47,47,47,49,46,47,46,11,49
9,20,21,21,22,23,35,37,22,43
78,45,44,44,46,43,44,44,8,46
77,44,44,44,45,43,43,43,8,47
69,47,48,47,112,44,46,47,45,49
75,45,46,45,46,44,45,44,10,47
78,50,49,50,50,47,50,48,10,81
78,47,47,47,113,46,47,47,9,48
71,48,47,47,50,46,47,47,46,48
74,51,48,47,50,46,48,49,45,79
45,43,30,30,29,17,41,41,12,44
66,43,41,38,78,28,43,42,78,76
69,46,44,44,47,44,44,44,11,46
72,10,21,22,23,18,38,38,49,12
81,49,49,49,113,46,46,47,9,112
69,48,49,47,51,45,45,46,44,111
72,49,51,47,51,43,46,48,44,49
41,82,83,83,87,88,88,80,95,82
49,45,43,43,46,43,43,43,13,45
78,43,43,43,45,40,42,43,9,46
35,38,13,14,39,13,14,14,110,37
17,14,12,11,111,11,13,13,110,109
22,39,40,40,37,36,36,36,113,35
62,37,38,35,35,35,34,17,29,22
31,36,36,36,36,36,36,29,113,34
30,37,38,38,42,38,29,39,110,40
34,41,13,45,112,13,13,13,111,110
17,14,13,13,14,13,13,13,110,109
16,14,13,14,14,13,13,13,108,15
34,37,12,40,45,34,33,13,113,40
90,86,86,86,88,48,83,84,63,88
90,87,88,86,91,82,86,85,55,90
16,13,13,13,110,12,13,13,108,108
16,13,13,13,110,13,13,13,108,107
62,19,12,12,15,12,15,15,19,22
16,15,13,13,19,12,14,13,109,16
30,29,14,14,110,13,14,14,109,108
20,105,13,107,111,13,13,13,109,108
32,13,13,14,14,12,13,13,14,14
36,14,13,13,14,13,13,13,16,13
17,28,11,28,32,10,10,10,112,30
43,23,14,21,21,14,21,21,111,21
39,39,12,12,113,12,12,12,111,111
67,22,20,18,22,19,19,20,18,22
22,14,12,12,13,13,13,13,110,15
49,22,19,19,23,12,15,20,19,22
30,19,17,17,17,17,17,21,110,27
26,41,41,39,43,41,41,41,26,41
31,42,42,42,43,44,44,45,112,44
43,50,14,51,54,13,15,14,112,50
36,48,13,48,45,13,13,14,111,44
91,94,92,85,93,91,90,89,107,92
41,52,53,52,52,53,52,49,111,49
62,15,13,21,24,33,13,13,28,17
77,71,71,48,52,56,68,72,52,73
0,2,4,70,75,65,0,1,64,5
86,55,54,13,16,13,54,54,23,15
32,49,50,48,50,47,46,48,44,49
64,56,55,57,57,54,55,56,13,61
35,47,53,52,55,46,45,47,111,48
29,46,51,51,51,47,45,44,47,47
37,54,55,55,53,52,51,55,110,48
14,28,27,36,36,37,24,23,36,29
17,37,43,43,44,39,34,35,40,35
87,60,60,58,64,58,62,59,17,64
20,38,46,45,46,39,35,38,39,35
36,50,52,51,52,48,48,49,48,48
63,18,26,26,30,36,17,16,30,22
45,50,56,54,55,50,45,45,50,51
26,44,45,45,45,44,43,42,38,41
35,49,50,48,52,46,46,45,45,47
24,42,48,47,48,42,38,41,43,42
29,40,48,47,45,46,40,38,40,41
21,31,40,39,39,39,28,27,33,28
30,45,49,49,49,46,45,46,43,45
13,31,38,35,36,37,23,22,35,31
38,46,53,53,51,47,47,46,47,46
30,55,57,56,56,58,57,67,57,45
73,29,25,25,28,28,27,28,27,27
68,86,86,86,91,96,78,81,93,81
13,32,44,42,41,41,30,30,37,30
32,44,51,48,47,44,44,45,111,44
28,41,47,47,47,41,40,40,43,40
26,41,44,42,45,41,40,40,41,40
42,49,53,51,54,47,47,47,110,53
33,47,47,46,50,46,46,46,46,48
37,49,50,50,54,46,46,46,111,46
58,15,36,33,27,34,11,14,31,20
60,29,29,36,37,37,25,29,31,24
13,28,40,38,36,32,20,21,32,28
58,13,13,13,14,13,51,51,22,13
45,105,105,105,109,105,104,103,111,106
22,36,42,41,41,37,38,34,35,34
61,57,54,55,53,52,54,56,19,57
17,35,35,36,49,35,35,35,32,39
86,65,66,60,64,57,63,62,57,63
88,62,68,62,66,60,65,65,60,69
36,49,53,49,52,49,49,49,48,49
16,29,38,38,30,35,19,18,31,28
29,45,47,46,50,44,42,44,45,47
41,48,53,53,53,49,45,49,110,49
99,103,110,110,111,103,100,99,50,103
80,35,36,35,35,37,37,35,44,39
64,70,46,45,39,40,60,59,37,73
106,64,64,64,66,62,62,61,18,65
40,40,37,37,45,37,37,38,43,40
33,47,52,51,54,47,46,47,47,48
61,62,61,62,71,63,61,61,70,69
98,0,0,0,2,0,1,0,0,0
49,49,33,30,58,24,47,48,4,56
32,35,39,36,40,32,32,33,110,38
58,31,36,31,34,28,47,46,13,54
17,37,43,43,46,36,36,35,42,43
16,23,15,31,30,14,15,15,15,21
33,15,15,15,15,15,15,14,16,18
88,57,51,53,57,64,53,51,21,58
82,23,25,23,27,18,28,25,15,27
99,105,105,106,110,103,101,104,109,108
88,55,52,53,59,57,52,51,57,56
88,51,51,50,54,50,49,49,58,54
26,41,41,41,41,38,38,39,37,41
85,5,10,10,14,4,5,3,20,5
103,106,12,108,112,12,12,12,110,109
37,14,13,14,14,13,14,14,110,14
76,49,46,44,56,47,45,46,22,49
24,40,46,45,45,42,42,43,40,40
16,29,29,27,30,38,15,24,38,29
33,48,51,50,49,47,44,47,42,44
36,35,36,36,40,36,33,33,36,39
25,41,48,47,45,44,44,44,42,36
86,59,57,57,60,55,64,62,17,67
64,16,16,15,25,25,14,14,36,20
87,64,60,61,62,57,61,63,14,67
42,53,54,54,55,50,49,48,109,54
86,61,60,60,60,56,58,62,17,67
60,16,16,24,24,21,12,13,28,17
24,37,51,51,43,47,30,31,38,39
59,13,13,13,14,13,13,13,27,13
13,26,28,30,33,36,23,24,35,28
88,61,59,62,63,59,66,66,20,70
85,62,61,60,64,59,62,60,18,64
103,48,51,51,50,50,45,51,111,44
20,33,33,38,39,39,32,32,47,39
1,19,19,20,20,72,13,14,68,19
38,72,73,73,76,72,74,72,73,64
95,46,47,47,44,44,44,45,37,108
35,48,50,49,53,47,36,47,49,43
32,48,49,48,49,46,43,42,45,42
32,45,50,46,50,46,45,43,41,43
36,48,54,50,54,47,47,47,47,49
18,31,33,37,36,40,26,26,34,29
17,28,47,36,36,40,24,26,39,28
41,53,54,53,57,53,53,54,109,54
22,35,47,43,40,43,37,40,38,35
16,33,44,42,37,38,25,25,37,31
24,39,46,41,42,42,41,39,41,31
62,14,14,14,16,14,13,14,19,16
22,34,41,40,40,40,35,34,36,35
43,50,53,53,111,49,49,49,110,107
54,40,41,39,43,35,40,40,30,43
64,51,54,52,56,48,51,51,40,54
18,46,49,46,50,46,46,46,46,46
15,27,37,36,34,35,28,26,29,27
27,39,42,41,44,39,39,39,112,37
20,42,50,46,50,43,43,43,43,42
25,37,41,41,42,37,37,38,37,34
43,50,53,53,56,50,49,49,110,49
22,44,50,46,50,41,41,41,45,47
24,38,42,38,42,38,38,37,38,38
60,53,53,51,52,47,52,53,19,57
17,30,35,35,37,40,22,29,36,31
98,38,38,38,38,36,36,38,113,38
101,49,50,50,53,50,49,48,110,49
64,102,103,103,107,101,91,101,110,103
19,45,45,45,47,43,43,43,43,46
38,15,12,12,113,12,13,14,111,111
39,9,16,16,20,9,8,9,15,9
41,41,42,42,46,42,37,39,110,44
44,14,13,14,14,13,14,14,111,19
28,39,46,46,44,39,36,37,112,40
41,15,15,15,17,14,15,15,15,16
59,30,36,34,35,30,35,33,30,25
34,39,40,40,41,39,39,40,111,39
32,35,36,36,43,35,32,33,111,38
45,45,45,45,109,46,46,45,109,107
22,32,33,33,40,28,28,13,33,28
74,27,30,28,30,27,30,28,114,28
13,31,31,31,37,29,28,27,114,34
45,27,18,16,23,15,22,26,17,35
61,53,52,50,51,49,50,51,28,56
65,33,34,33,38,35,32,36,111,35
24,33,33,33,36,33,14,14,33,26
26,42,14,39,15,14,14,15,111,36
49,21,14,16,15,13,22,26,13,31
90,87,81,82,83,67,83,84,56,89
53,32,29,22,26,22,27,31,22,36
47,14,13,13,15,13,13,14,109,15
52,26,23,21,26,22,20,24,22,24
30,41,43,42,46,41,41,41,114,44
47,14,13,14,15,13,13,14,110,15
95,104,105,106,110,102,101,102,108,107
52,21,19,18,26,18,17,19,22,22
41,14,14,15,15,14,14,14,15,15
41,44,45,53,48,41,41,41,110,46
67,62,64,59,67,54,59,57,47,58
23,42,44,44,45,41,40,41,40,45
46,22,19,17,18,15,17,21,15,22
44,12,12,12,13,12,12,12,110,15
65,22,37,35,30,30,19,19,28,23
90,87,85,84,84,80,85,86,74,87
35,17,15,16,16,15,15,15,111,21
19,15,13,14,20,13,13,14,113,19
85,82,80,47,49,50,77,79,58,84
100,95,97,96,100,92,94,94,57,98
64,25,25,26,28,22,25,23,23,26
38,16,15,15,16,15,15,15,15,17
20,19,15,15,15,15,15,15,113,21
57,27,13,19,15,12,20,21,12,26
92,75,76,75,80,75,74,86,75,77
86,72,72,72,74,68,69,69,21,73
32,35,36,36,40,38,37,35,116,39
102,105,106,107,111,103,102,103,110,109
41,16,15,24,16,16,15,26,16,16
38,38,38,38,44,38,37,35,113,40
57,27,26,27,32,28,24,24,28,28
69,15,14,15,15,14,14,23,26,30
59,12,12,13,16,12,11,12,25,16
57,13,12,16,22,13,12,12,26,15
16,23,25,26,31,28,13,13,34,27
21,38,41,42,44,38,34,37,39,37
20,31,39,37,38,38,31,31,37,32
21,30,52,37,40,44,28,29,39,31
32,45,47,45,47,44,44,45,42,44
87,71,72,68,72,68,71,70,67,72
12,13,12,24,26,29,12,14,31,14
12,20,21,24,26,27,11,11,28,21
27,45,52,52,53,46,45,44,46,44
32,47,48,48,51,46,45,45,109,46
34,44,46,45,49,45,42,42,110,42
34,49,52,52,56,48,47,49,109,49
59,15,13,13,24,14,14,13,29,17
23,36,41,41,42,38,34,33,112,34
34,44,49,48,50,43,41,43,110,42
39,47,49,48,53,47,47,46,110,50
104,59,55,55,59,55,55,57,15,59
64,23,98,28,31,30,19,19,37,24
24,40,48,47,40,40,40,40,41,37
59,18,12,19,25,19,12,12,25,21
25,34,46,41,40,42,31,31,39,36
26,32,45,45,38,32,32,43,28,31
35,34,36,35,111,32,32,33,109,109
26,37,38,38,40,37,34,34,111,39
29,46,48,47,51,43,40,44,108,45
102,77,82,78,112,77,78,77,110,110
39,20,18,17,16,17,16,15,40,43
33,32,17,17,18,21,20,23,33,35
102,110,111,111,114,107,106,108,113,113
23,37,37,37,42,35,34,35,37,37
28,36,42,40,41,38,41,39,112,39
40,39,40,40,110,40,40,40,108,108
41,44,45,45,49,41,41,42,110,43
83,71,72,72,76,67,68,69,20,75
39,46,47,47,51,46,46,47,110,48
34,14,14,14,18,13,14,14,110,16
83,70,70,67,71,71,70,68,25,73
28,16,15,15,18,15,19,16,14,16
63,29,13,13,17,12,28,27,13,31
71,75,84,17,84,21,63,68,32,75
50,62,67,67,67,67,67,75,61,63
16,14,13,14,14,12,13,13,110,17
90,27,12,21,33,23,19,23,28,30
93,90,90,87,91,82,87,87,58,92
50,11,10,18,21,10,10,10,16,20
27,33,34,34,114,28,30,29,112,35
34,15,15,15,16,14,15,15,110,16
69,13,12,12,13,12,12,12,17,13
29,15,14,15,15,15,15,15,14,15
17,84,13,29,114,13,13,13,112,112
28,40,41,41,43,37,37,40,113,40
60,59,57,60,64,56,56,58,69,66
5,117,98,118,117,98,99,99,118,105
32,43,46,46,47,42,42,42,40,42
25,44,44,50,48,45,44,37,50,44
33,48,49,49,51,46,43,46,46,49
30,44,47,47,48,46,43,44,44,43
34,45,45,45,52,45,41,40,40,41
24,40,41,39,40,37,37,36,35,37
87,81,68,63,66,54,80,79,22,89
68,97,97,98,102,94,92,91,105,100
22,34,40,37,40,37,17,20,37,30
38,51,51,51,51,49,49,50,107,50
29,42,47,47,45,43,42,42,40,42
20,37,47,46,45,42,33,32,41,34
18,34,41,41,40,37,34,30,33,33
31,46,46,46,49,44,42,45,111,46
28,42,43,43,47,40,39,40,42,44
103,85,82,80,84,74,82,83,21,88
58,47,47,47,47,41,49,50,20,51
82,33,37,35,33,33,42,43,28,28
40,49,51,51,110,46,46,47,109,47
92,81,80,80,83,76,80,80,27,82
88,77,77,78,82,72,74,75,15,80
61,19,18,19,23,18,18,17,28,23
86,74,71,71,72,67,71,73,19,72
17,40,46,46,45,42,29,30,43,36
39,48,52,52,53,48,48,46,109,50
22,35,43,40,40,40,35,32,40,33
14,19,25,25,27,35,16,14,29,22
84,61,59,58,61,54,58,60,13,60
41,51,51,53,52,50,50,51,109,50
59,15,14,14,17,14,14,14,23,16
13,24,40,33,30,33,12,16,32,25
27,44,45,45,47,44,43,43,43,45
25,46,48,47,51,45,41,40,46,41
93,67,69,68,68,63,65,66,61,65
61,50,50,51,55,47,49,48,120,52
24,0,21,0,2,0,0,0,3,1
97,54,54,54,55,53,52,53,16,56
98,101,79,75,75,74,92,93,39,104
57,29,31,31,31,31,20,23,26,28
31,47,52,53,52,49,44,44,48,45
62,46,62,46,44,34,50,47,46,64
79,78,80,80,79,115,71,72,109,82
31,25,16,15,18,15,19,23,15,29
37,48,49,49,48,48,48,46,111,46
27,43,45,44,45,44,40,43,40,43
53,48,47,47,48,46,46,47,16,49
24,38,45,43,45,39,36,37,40,38
20,32,42,38,41,39,28,40,33,31
90,73,73,69,73,68,73,71,21,75
24,44,46,46,49,42,46,43,42,38
57,17,14,17,28,33,17,14,29,20
33,46,47,47,51,47,42,47,46,47
42,49,53,53,54,48,48,48,111,53
26,46,48,47,46,45,44,45,48,36
32,45,48,45,49,43,43,42,43,44
57,12,12,12,13,11,49,49,20,13
72,38,40,39,42,39,42,43,114,38
44,48,51,50,51,45,45,47,110,48
63,19,15,22,27,23,16,18,35,26
32,45,48,46,47,45,45,44,42,44
14,19,18,21,25,35,13,18,29,22
87,75,76,76,73,71,77,74,20,78
18,43,45,44,45,42,36,40,41,36
19,29,40,39,37,38,19,19,36,28
89,71,72,68,72,64,70,69,60,74
57,15,13,19,20,13,13,13,23,20
29,45,46,45,46,42,45,44,41,44
62,23,44,23,24,25,17,20,24,24
34,45,48,47,47,44,48,46,43,40
20,41,48,48,48,40,38,39,42,41
19,29,44,34,35,38,14,26,34,34
19,27,44,43,35,35,15,15,28,30
87,73,74,62,71,63,71,72,14,65
21,29,19,38,39,39,16,19,32,29
56,14,12,12,19,12,12,12,21,15
40,47,50,49,50,49,49,49,108,47
55,45,42,13,15,12,45,43,19,48
34,36,38,37,38,35,35,36,93,36
62,42,49,38,46,31,37,41,31,42
86,64,64,62,62,58,63,64,19,69
28,49,49,53,49,49,44,50,47,43
63,14,13,21,21,21,13,14,29,15
57,13,12,12,16,12,12,12,22,15
26,39,46,45,46,41,38,38,41,38
58,56,53,53,107,53,53,51,19,55
62,16,15,16,20,15,16,15,30,23
80,101,102,103,106,99,98,97,110,105
35,48,52,48,52,47,47,47,110,49
21,45,47,46,50,43,43,43,41,43
58,12,12,12,16,12,12,12,22,15
25,42,48,43,48,42,36,36,40,36
27,43,47,45,48,44,44,42,42,40
18,30,40,38,38,39,25,35,38,28
59,14,13,14,16,13,13,13,21,16
36,50,51,51,51,48,48,48,111,49
71,31,43,42,40,37,31,30,36,32
22,39,47,46,44,43,35,39,39,39
63,46,49,46,50,40,45,46,30,27
59,51,48,47,48,13,49,50,18,54
89,60,57,58,62,58,57,62,17,60
21,32,32,35,38,39,17,14,36,32
61,16,13,22,30,34,13,13,33,21
16,29,35,34,34,38,14,14,34,27
11,21,31,31,28,28,21,21,24,21
16,28,29,31,33,37,13,26,32,29
19,43,51,51,49,46,43,42,44,43
22,42,52,51,51,44,41,41,43,43
87,60,60,58,62,58,63,62,19,62
105,105,105,106,12,105,105,105,11,105
14,31,35,32,36,35,23,29,34,31
21,34,42,42,42,42,30,29,37,35
22,35,39,38,40,38,35,35,32,35
35,50,51,51,55,51,51,49,50,51
27,44,49,48,49,45,44,44,44,44
18,28,29,29,33,37,18,25,31,30
22,41,50,49,46,46,41,39,42,42
25,47,49,47,51,47,45,45,47,44
34,51,51,49,52,49,47,46,49,51
20,33,33,32,35,35,14,14,36,32
22,38,46,46,47,43,39,38,43,39
17,29,48,44,38,40,24,25,31,30
28,47,50,50,51,49,43,47,46,48
22,45,46,46,49,46,46,43,46,46
16,34,42,42,42,42,25,28,39,35
31,34,39,35,39,34,32,33,94,36
60,36,24,41,45,20,32,32,40,44
39,47,50,48,52,47,47,46,47,50
88,78,65,64,64,55,75,73,19,86
21,49,54,49,54,46,50,51,49,52
97,47,54,52,113,53,54,54,111,109
27,38,46,46,43,40,35,40,40,36
24,36,57,48,47,48,33,34,49,41
88,65,63,63,67,62,67,71,16,64
29,37,61,42,42,51,30,37,44,39
42,53,58,56,58,53,53,53,109,52
17,19,26,27,31,27,16,18,35,26
23,36,49,49,46,47,35,35,42,36
19,32,33,33,36,32,29,30,30,32
21,32,34,33,33,29,30,31,26,29
26,38,53,50,46,45,34,33,44,38
31,43,50,50,48,47,43,43,43,43
15,26,27,27,31,39,14,21,33,27
23,38,44,42,43,42,31,32,36,35
15,18,18,26,27,34,14,14,31,20
55,12,11,11,14,11,11,11,18,13
52,0,0,0,3,25,0,0,4,3
15,27,27,27,35,38,15,25,35,28
20,24,17,17,32,41,19,19,36,25
59,52,51,51,53,49,51,52,22,55
15,25,46,39,33,33,22,25,33,26
16,30,44,43,38,39,28,28,38,28
30,38,39,37,41,35,36,37,36,37
61,45,45,21,45,32,45,42,25,25
63,13,40,13,17,21,17,16,14,17
32,44,50,49,50,43,40,50,44,39
19,31,47,43,40,41,28,28,39,33
18,39,42,41,44,41,29,30,36,37
30,53,53,53,52,50,49,52,48,52
88,78,77,70,73,62,81,82,61,81
37,53,54,54,56,51,50,51,50,52
31,35,36,36,35,32,32,34,93,33
31,44,55,53,46,47,46,50,41,40
20,28,15,44,36,40,21,24,33,32
21,32,51,39,39,41,27,31,40,33
15,28,28,29,32,36,21,25,34,29
54,11,10,11,11,10,10,10,17,11
58,12,12,12,15,12,12,12,21,14
41,55,56,57,58,55,52,54,110,55
22,21,19,27,30,31,17,19,33,27
24,34,50,47,42,46,29,32,41,35
29,40,56,51,49,48,36,39,47,41
24,37,47,46,46,47,31,31,44,36
60,13,13,13,17,14,12,13,23,17
27,49,52,52,53,48,46,49,47,49
37,50,50,51,56,50,50,49,51,53
38,54,55,55,55,54,54,55,50,49
95,45,43,10,13,10,44,43,22,47
58,12,11,15,18,11,11,11,21,13
28,41,51,46,49,46,38,40,45,40
61,21,13,22,27,22,15,14,33,23
22,31,43,43,40,41,29,27,36,32
16,28,39,39,36,36,27,28,32,28
16,26,28,31,34,43,14,14,37,30
21,42,56,52,47,50,35,35,45,42
37,53,56,56,55,52,52,53,51,48
22,33,38,43,40,44,29,33,40,34
18,33,40,40,42,36,35,33,36,34
63,13,19,20,23,15,13,13,28,15
52,10,10,10,10,10,9,10,15,10
59,54,53,53,52,13,53,54,22,55
26,38,56,52,48,51,38,38,46,39
21,39,39,40,43,47,33,33,42,36
20,29,32,32,33,41,21,28,34,31
32,46,53,46,55,52,46,46,47,48
17,25,30,31,35,38,23,22,34,28
83,75,76,75,76,72,75,76,15,78
66,58,58,58,60,55,59,59,24,61
95,49,57,52,50,49,47,49,103,47
86,74,74,74,75,70,73,74,11,76
26,39,45,45,43,44,41,42,41,38
88,69,69,67,68,63,66,69,13,69
86,67,66,66,67,62,65,66,14,68
27,39,54,50,45,46,39,36,46,39
19,33,38,44,40,46,34,32,45,34
25,35,55,42,42,43,35,35,43,35
17,28,28,29,35,36,23,22,39,29
14,19,19,26,26,26,15,18,28,20
36,47,58,53,49,51,46,46,48,46
33,47,53,53,49,49,48,48,45,46
26,34,37,37,39,38,32,33,39,37
28,42,43,43,43,46,42,39,44,42
17,27,28,29,32,29,25,24,35,28
13,21,24,25,28,22,17,17,30,24
54,26,26,34,38,30,26,25,28,28
32,43,44,44,48,44,45,45,112,46
32,48,49,48,52,45,44,44,111,49
29,42,42,42,47,42,41,42,112,44
33,44,45,45,50,45,45,45,112,46
33,40,45,45,45,39,28,48,39,41
37,43,44,44,48,40,40,41,112,40
60,27,38,35,36,35,25,24,35,25
17,43,43,29,51,43,43,42,45,47
21,35,43,33,36,40,34,35,33,36
43,15,13,13,16,13,14,14,112,16
30,71,71,72,73,71,65,65,115,71
30,48,47,46,56,48,47,47,110,48
91,85,84,85,89,81,83,83,55,88
27,33,40,39,39,40,40,42,34,30
18,16,14,14,16,14,15,15,111,16
28,15,14,13,16,13,15,13,110,16
31,39,13,15,45,13,15,14,113,43
40,16,14,15,16,14,15,15,111,16
73,13,13,13,16,11,12,13,112,15
15,14,12,12,13,12,12,12,107,106
51,14,13,13,14,13,14,13,13,17
28,16,13,13,15,13,13,14,13,14
19,13,12,13,14,11,13,12,112,16
75,20,14,15,17,14,18,15,115,16
17,16,14,14,108,14,14,14,107,107
52,28,12,32,36,27,26,18,32,26
28,16,15,16,17,14,14,14,110,17
92,62,62,60,69,61,59,60,25,27
36,16,16,17,16,15,16,15,17,21
34,34,12,12,14,12,14,13,110,37
16,14,13,13,14,12,13,13,107,106
30,37,14,15,15,14,15,18,38,40
34,14,14,14,18,14,18,14,14,16
43,105,13,107,111,13,14,14,109,109
89,85,86,47,89,45,46,83,59,87
16,106,13,107,111,12,14,13,109,108
32,15,14,15,15,14,14,15,112,15
60,19,13,19,16,13,16,17,20,22
21,16,16,16,16,16,16,16,112,18
22,15,14,14,15,14,14,14,113,113
15,14,14,14,16,13,14,14,113,17
25,14,13,13,14,12,12,13,110,110
16,13,12,12,12,12,12,12,103,14
24,106,13,13,111,14,14,14,109,109
89,55,84,53,56,53,52,52,66,56
30,15,13,13,15,13,14,14,110,15
40,25,21,20,21,17,22,23,15,28
84,89,90,91,94,87,86,87,94,92
20,34,13,42,46,38,13,13,111,34
21,36,36,35,39,33,33,37,114,37
39,19,16,16,16,16,16,16,111,48
36,44,12,45,112,12,13,13,110,110
69,38,40,37,40,37,37,37,112,38
108,16,14,14,16,14,14,14,110,110
104,107,13,108,112,13,14,105,110,110
101,105,13,107,111,102,101,104,109,109
55,21,19,18,22,17,18,21,14,21
14,13,12,13,14,12,13,12,111,14
24,14,13,14,15,13,14,13,110,14
18,16,14,14,16,14,16,15,110,21
35,15,14,15,15,14,14,14,110,15
35,46,47,47,47,44,43,45,114,43
17,39,38,43,49,35,12,39,48,16
40,57,56,55,63,56,54,52,55,56
68,92,103,104,107,106,90,90,106,93
29,42,45,46,47,41,41,41,109,42
102,12,57,58,20,57,57,56,26,16
40,53,55,55,55,51,49,52,108,47
26,43,45,47,44,44,42,38,42,39
38,51,54,51,54,51,51,51,48,50
37,53,53,54,54,51,50,52,109,50
69,59,56,13,16,12,58,58,20,75
31,49,53,50,54,49,49,48,49,42
35,50,53,52,51,49,48,49,48,47
23,42,46,45,46,43,42,41,41,42
39,51,52,51,55,49,49,49,50,52
88,67,67,68,73,60,69,67,15,71
37,49,53,49,53,49,49,49,49,49
38,50,52,52,56,49,49,49,110,51
20,35,46,46,44,44,34,32,42,37
35,50,54,54,54,49,49,47,49,47
36,49,50,50,54,49,49,49,49,48
44,50,56,55,56,50,49,49,107,55
35,51,52,52,51,50,50,50,47,50
30,47,54,52,53,45,44,46,48,48
34,46,50,47,51,47,46,46,111,46
28,41,45,45,45,46,41,41,46,40
33,50,51,51,52,48,47,50,47,47
29,47,52,51,52,47,47,47,47,43
26,38,49,46,43,45,40,38,42,38
16,25,27,27,31,38,18,23,35,27
36,48,51,49,53,48,48,48,48,48
32,43,52,51,52,51,41,44,43,45
88,73,73,67,67,62,73,76,60,76
29,44,51,48,48,47,47,47,45,40
31,45,52,49,52,46,47,46,46,42
36,50,51,51,52,48,47,48,48,50
25,43,46,45,44,43,38,43,43,39
29,50,51,51,52,48,47,48,48,44
87,73,74,68,72,63,70,71,58,72
13,33,41,40,41,35,31,34,36,31
29,47,48,48,52,46,41,44,43,42
14,17,13,17,25,18,13,13,30,18
35,47,52,52,51,48,47,48,111,47
24,40,48,47,48,47,38,37,42,38
27,45,49,46,48,45,45,44,44,39
13,18,23,24,26,23,19,18,29,20
23,41,50,50,50,46,39,38,46,41
27,40,49,49,50,47,41,40,45,40
35,44,53,53,53,49,45,44,50,44
16,28,27,34,34,36,24,27,33,27
20,27,32,32,35,39,26,26,37,32
83,65,66,64,64,59,63,62,15,66
109,23,15,16,19,15,20,17,111,43
106,13,13,13,14,11,12,11,114,14
47,37,38,38,33,22,34,38,26,43
50,18,12,12,13,12,15,12,17,19
86,53,51,51,59,67,50,51,61,54
33,15,14,15,15,14,14,14,15,16
93,104,107,108,112,104,103,105,111,106
94,72,70,73,80,70,71,71,27,77
43,25,20,19,23,16,22,22,19,25
45,18,16,16,16,16,15,14,16,20
20,13,13,13,13,12,13,13,110,14
69,107,75,109,113,105,69,72,111,111
21,17,16,17,17,16,16,17,110,18
31,15,15,15,16,14,15,15,111,16
27,28,14,28,111,14,16,16,110,110
47,107,108,108,112,104,40,105,110,110
17,30,14,14,35,14,15,15,110,16
30,42,45,43,47,38,38,37,43,45
30,18,15,15,18,15,17,17,108,18
32,43,15,16,17,14,17,16,111,43
69,76,81,80,81,75,76,75,110,76
89,51,50,48,56,49,47,50,56,53
66,42,45,41,44,37,42,41,31,43
84,63,54,52,57,47,58,61,36,71
87,59,56,57,61,61,56,56,57,59
70,76,64,83,84,84,65,68,86,77
39,106,47,107,111,41,38,39,109,108
2,7,14,15,11,11,11,9,15,7
45,52,61,61,57,58,58,63,52,53
39,47,50,50,51,47,46,47,109,47
12,22,35,33,34,34,22,22,30,22
19,38,38,38,43,37,37,37,38,38
23,42,46,45,49,43,41,41,44,42
29,46,47,47,47,45,45,45,44,47
22,40,41,41,42,39,36,35,38,35
60,53,50,12,12,11,50,51,19,56
34,45,48,46,50,45,45,45,110,45
25,38,44,44,44,43,36,35,37,38
42,50,52,51,55,49,49,49,110,52
64,18,16,16,31,31,15,18,34,18
33,48,54,50,54,46,45,46,110,48
49,110,111,111,115,107,20,42,113,112
106,106,104,106,114,106,105,103,113,110
73,90,88,87,97,90,88,88,98,90
56,21,12,16,30,12,17,20,26,27
29,42,15,42,48,41,15,41,42,45
20,37,43,38,43,37,37,35,38,40
15,39,42,43,43,39,30,30,39,35
31,47,48,48,48,45,45,45,48,50
53,12,11,12,17,13,12,11,20,17
21,39,46,43,46,41,35,39,37,34
20,39,45,42,45,39,30,31,35,36
21,39,44,43,41,40,39,37,36,36
31,46,46,46,48,46,46,43,110,46
84,100,102,102,105,98,97,99,110,103
20,43,44,44,48,42,39,36,42,37
32,43,44,44,43,41,40,41,110,40
64,19,16,28,31,38,16,19,35,26
36,49,50,49,48,48,48,47,110,41
24,40,45,43,47,39,39,39,43,41
18,25,13,30,33,37,13,19,34,25
42,50,50,50,54,49,49,49,108,50
66,25,15,16,15,14,22,23,16,34
105,14,13,13,14,12,13,13,112,112
55,24,36,30,33,31,50,23,29,24
59,20,13,29,33,20,14,15,27,22
60,13,13,13,17,13,13,13,27,17
102,59,59,59,61,56,56,58,13,104
18,28,28,28,36,38,19,24,37,29
22,33,35,36,40,47,32,33,41,35
15,22,23,27,29,23,13,13,30,23
26,37,37,39,40,48,32,34,42,38
17,28,31,31,33,32,25,28,35,32
38,46,58,54,51,53,47,51,48,46
49,45,43,10,10,9,43,43,11,10
18,19,19,20,24,19,19,18,35,20
18,28,29,30,30,30,18,21,36,28
18,18,17,16,23,19,14,17,31,20
22,29,30,33,36,34,23,21,40,30
15,16,13,16,22,13,12,13,29,20
55,12,11,12,12,11,11,11,22,14
16,30,31,33,36,40,28,29,33,33
35,50,55,55,55,52,51,54,109,47
25,43,46,45,48,48,41,41,49,44
26,39,47,44,44,44,44,44,41,37
28,42,52,50,50,50,40,41,45,42
57,12,12,13,14,11,11,11,19,14
13,15,13,17,21,13,13,13,27,20
61,12,12,13,15,12,12,12,18,14
66,20,21,19,22,17,19,17,26,22
16,22,21,20,28,22,20,20,32,22
33,48,55,51,52,51,45,48,51,48
15,22,13,30,31,37,13,13,33,23
24,36,39,40,42,46,33,33,43,36
55,43,38,36,42,32,43,41,15,46
59,43,42,40,44,29,42,43,22,45
41,39,36,36,107,20,36,37,13,42
90,18,39,40,44,18,14,13,44,20
32,34,43,43,43,39,26,25,47,38
72,65,62,60,65,62,65,64,38,68
37,33,34,31,100,30,30,31,8,36
77,8,8,10,14,6,7,8,13,12
26,39,39,44,47,39,38,41,44,40
29,30,13,13,41,12,12,13,32,29
32,36,37,37,115,34,32,29,112,111
41,46,47,110,113,46,46,46,112,112
47,73,88,92,87,89,73,72,104,76
36,42,44,43,47,39,38,40,110,41
46,105,12,106,110,46,12,46,109,108
30,45,47,47,46,44,43,44,42,40
21,44,46,46,49,43,43,43,42,42
28,45,51,46,50,45,45,44,43,45
18,34,47,35,39,42,30,30,37,35
14,25,34,33,33,36,13,17,34,26
32,45,47,47,50,43,43,44,43,43
35,46,48,48,46,46,46,46,110,42
19,29,35,35,34,30,28,32,30,29
34,50,55,53,54,51,51,50,49,51
32,49,49,54,49,49,49,49,62,48
50,49,49,50,50,52,47,48,58,49
88,48,83,48,48,47,84,85,48,48
111,105,105,105,106,102,105,106,70,107
57,58,57,57,60,57,57,57,68,60
23,29,31,30,34,27,27,28,73,32
57,13,14,13,16,12,12,12,20,16
43,27,27,27,27,26,27,27,54,27
80,70,70,70,71,66,72,72,70,72
76,88,88,88,88,88,83,82,89,88
34,34,33,29,32,44,32,31,37,36
28,40,48,48,48,44,40,46,44,39
98,44,45,45,44,43,43,43,105,42
17,19,12,24,27,24,12,15,31,21
95,101,102,109,28,32,106,106,112,25
70,23,22,20,27,22,22,20,31,26
30,40,54,46,45,48,39,39,43,39
63,13,13,13,14,13,13,13,23,13
15,25,25,29,32,38,22,25,33,26
21,28,32,33,37,32,26,25,39,33
88,63,66,64,65,63,65,66,96,62
109,47,49,46,52,41,44,45,32,111
25,33,34,35,38,39,26,30,40,34
24,34,36,36,38,36,30,30,43,36
23,40,48,45,41,41,37,37,41,37
34,47,53,52,47,48,47,47,47,43
23,35,50,38,39,43,33,34,40,35
33,46,51,49,50,47,47,45,110,45
21,28,33,33,33,39,21,28,36,29
33,43,54,52,51,48,45,43,44,43
16,27,31,31,34,28,14,14,36,27
17,28,29,30,32,39,27,28,33,30
22,31,32,32,35,42,29,31,38,34
17,18,13,16,27,18,17,13,32,21
17,27,30,31,35,32,27,27,39,31
31,43,48,48,45,45,44,45,40,39
29,44,49,49,49,46,44,47,45,41
23,38,52,41,43,48,37,37,42,41
33,46,53,53,52,52,41,45,47,44
26,38,56,48,44,48,37,36,44,38
36,37,48,46,46,48,36,37,47,44
17,32,32,32,36,32,25,28,38,32
61,12,12,12,13,14,13,13,24,13
36,47,50,49,50,46,46,46,110,47
21,39,44,43,45,42,36,40,40,42
56,17,16,17,26,22,16,16,28,21
40,44,45,45,47,41,41,41,109,47
44,75,75,70,75,69,70,70,70,75
76,91,91,92,88,89,88,90,104,84
90,103,113,108,112,102,112,113,104,102
92,20,28,28,28,25,16,15,20,21
31,43,48,47,47,44,44,44,41,43
21,39,48,48,44,44,38,36,39,40
61,50,47,47,13,11,51,49,22,54
44,48,49,49,53,49,44,49,110,49
56,12,12,12,16,12,12,12,17,16
67,66,67,67,67,63,63,64,69,67
34,101,101,101,105,109,98,99,104,104
44,48,49,109,112,48,45,47,111,111
104,108,109,110,114,105,104,103,112,111
26,42,49,47,48,39,36,35,35,37
94,15,15,15,16,15,15,15,17,15
18,22,31,30,33,34,18,16,33,21
57,13,12,13,18,12,12,12,23,14
15,19,14,23,27,30,14,14,33,23
94,54,53,52,56,53,53,54,52,55
98,51,51,51,52,51,51,51,59,51
117,2,2,2,2,2,2,2,2,2
36,8,8,8,10,14,8,8,11,9
55,62,40,38,42,34,49,45,103,65
76,9,9,9,13,9,9,9,18,12
74,62,60,13,13,12,59,61,18,13
113,113,113,114,115,111,111,111,119,116
62,59,58,57,57,55,57,56,53,60
67,60,59,59,59,57,60,59,56,63
74,84,83,89,91,94,72,82,100,82
65,19,17,17,24,16,16,17,29,21
35,48,55,53,54,53,49,54,50,47
40,52,54,53,57,50,49,51,109,51
52,11,11,11,12,11,47,49,18,12
23,35,37,38,39,42,36,35,38,36
19,37,37,44,41,40,31,31,38,37
19,32,33,40,42,42,30,29,43,32
14,16,16,15,21,15,13,13,28,17
19,25,25,30,31,38,21,25,34,27
27,40,52,49,43,44,38,40,43,40
14,25,25,31,35,35,23,21,34,25
20,26,26,32,35,36,23,23,37,31
57,11,11,10,11,10,51,10,17,11
57,12,11,12,12,11,11,11,22,12
24,38,51,50,43,46,32,36,41,38
101,102,104,16,107,14,101,101,21,104
30,44,45,44,49,43,42,43,112,46
58,49,41,14,13,12,53,49,18,53
41,19,19,18,15,14,22,22,18,27
19,35,41,36,40,32,14,29,35,37
15,13,12,13,113,12,12,12,111,111
47,16,15,16,15,14,15,15,17,21
76,15,15,15,15,14,14,14,115,15
62,35,37,36,40,29,17,34,36,39
20,14,13,14,29,13,13,13,111,16
58,19,11,17,16,18,17,21,11,27
26,38,40,39,43,38,38,38,38,40
89,85,84,84,88,54,83,83,60,88
29,15,14,14,15,14,14,14,114,15
35,40,13,41,46,13,13,13,110,43
85,68,66,65,69,66,65,76,28,68
24,30,38,33,37,30,29,29,32,35
29,39,13,39,39,13,13,13,110,40
89,85,77,59,60,56,84,85,59,88
19,28,28,32,36,28,25,27,29,32
27,34,34,33,112,33,13,34,111,110
33,17,16,16,19,15,17,16,109,17
35,14,13,13,14,12,13,12,110,14
18,14,11,18,113,12,12,12,112,19
64,26,17,24,34,25,24,24,30,27
17,23,35,35,38,23,23,23,34,24
13,19,12,16,19,11,12,12,111,18
17,16,14,15,16,13,15,14,109,17
28,35,38,38,41,34,28,34,37,39
90,86,86,85,86,71,83,84,64,89
38,14,14,14,17,14,14,14,13,15
70,109,110,110,114,106,105,107,112,112
42,21,16,19,26,18,18,16,22,24
87,105,104,107,110,103,100,104,109,99
0,49,57,57,61,49,54,56,61,1
101,74,74,72,75,72,72,73,72,75
46,45,41,41,50,53,41,40,48,45
22,19,13,13,34,13,17,14,19,22
21,36,36,38,44,36,36,36,35,36
94,67,76,71,65,66,64,65,57,65
101,105,106,107,110,102,102,103,109,108
101,106,107,108,111,104,102,104,110,109
22,20,21,17,12,13,18,18,17,23
18,29,34,30,34,34,14,28,31,33
52,15,13,21,25,24,11,11,23,12
44,47,48,44,45,45,45,45,107,44
90,69,69,64,68,59,70,74,58,79
89,63,67,59,68,56,79,76,14,62
41,52,53,52,53,49,49,49,108,49
17,22,27,27,30,35,18,15,34,24
22,37,44,42,46,38,36,39,34,37
35,48,52,51,53,47,47,47,108,47
18,28,38,35,35,35,18,22,33,26
29,41,51,50,49,49,38,41,42,44
33,48,49,49,49,45,45,46,109,46
22,35,47,46,42,42,29,32,39,35
36,49,54,53,51,48,49,49,47,47
26,44,49,45,49,43,35,43,42,38
40,51,52,52,55,52,47,52,108,52
15,37,47,45,45,41,27,35,39,37
39,50,51,51,55,47,47,49,109,50
36,47,54,53,52,49,49,50,48,47
39,52,52,53,52,49,49,51,108,49
58,12,12,13,14,14,12,12,24,14
89,71,72,69,69,62,82,74,20,72
22,38,45,41,44,38,33,37,40,38
30,31,31,29,33,33,27,28,43,35
42,54,54,54,54,54,54,55,109,54
