0,1,2,3,4,5,6,7,8,9
98,66,64,64,62,66,67,66,29,64
100,68,66,66,64,69,69,69,30,66
62,74,74,74,71,77,77,77,128,71
67,126,125,127,127,127,124,127,129,126
55,69,72,71,69,71,71,71,131,71
96,70,68,67,129,70,72,71,67,67
90,68,66,68,64,68,69,69,32,66
33,38,37,46,43,50,41,40,50,37
45,62,62,62,61,66,64,65,57,59
62,73,73,73,70,73,73,72,130,70
68,65,63,64,60,67,67,66,30,63
68,40,47,44,42,47,33,32,40,37
47,59,68,68,62,67,41,58,62,56
33,45,50,49,47,56,36,34,51,44
93,68,67,67,64,70,71,69,30,69
95,65,65,65,64,67,68,67,30,65
96,68,67,67,128,69,70,70,65,67
99,70,69,69,129,71,72,72,29,130
56,64,80,79,64,79,67,65,69,62
71,67,64,67,64,67,69,67,31,66
44,57,60,60,57,72,59,58,63,58
88,67,65,67,67,69,70,69,100,65
108,98,96,95,92,37,99,99,34,97
94,30,63,62,27,65,65,65,33,27
91,69,67,67,64,70,71,69,129,68
103,104,65,65,132,67,104,103,29,103
67,69,63,63,64,70,68,66,74,66
45,64,77,67,64,72,61,65,67,61
93,65,42,42,66,36,46,47,66,67
97,67,65,64,128,67,68,67,64,129
96,67,66,66,129,67,71,71,29,130
93,66,61,62,66,66,65,63,66,64
36,34,32,33,40,36,36,35,33,33
49,70,74,70,70,75,72,70,69,65
107,101,100,100,96,39,104,104,42,101
83,102,107,103,102,106,123,121,132,102
44,58,64,63,59,67,58,60,60,54
69,69,67,67,25,69,69,69,31,67
34,47,46,52,47,53,47,48,57,44
59,74,75,75,74,77,77,75,74,71
38,57,61,61,58,62,61,58,57,55
37,58,59,58,58,63,53,55,55,53
109,107,105,103,101,94,106,107,83,106
96,66,64,64,62,67,67,67,30,65
102,69,69,69,26,71,71,70,30,28
94,94,93,94,92,94,94,94,92,94
53,70,74,74,73,74,69,67,70,65
64,66,62,62,69,69,68,65,35,62
97,64,62,64,61,64,67,65,30,62
96,66,65,64,60,67,67,66,30,65
49,68,71,70,67,75,70,70,66,65
90,64,60,58,58,62,66,64,38,60
44,70,70,72,66,74,63,65,64,61
34,54,58,58,54,58,56,48,51,46
95,65,65,64,61,66,68,67,30,65
106,67,66,66,132,68,70,68,30,68
90,68,67,67,129,67,71,71,29,66
46,37,35,36,32,39,40,39,133,35
99,69,68,68,67,71,72,71,31,68
94,65,63,63,62,67,67,67,29,63
100,70,69,69,67,71,72,71,30,69
108,90,87,87,87,82,105,104,39,104
94,67,66,65,63,67,69,68,31,65
67,64,62,62,129,65,66,65,29,62
121,101,99,99,95,99,102,102,94,99
99,65,64,64,60,65,68,67,29,99
58,70,70,70,66,78,65,65,71,61
88,67,67,64,63,66,69,67,61,64
43,48,33,33,31,38,39,38,132,47
98,68,67,29,26,68,70,68,32,28
94,67,67,67,63,68,70,69,29,67
38,50,50,55,51,65,47,49,57,48
34,48,52,52,49,65,46,49,54,45
91,66,63,61,61,65,67,66,61,65
97,67,65,65,62,67,70,69,30,65
92,68,66,66,64,67,68,68,65,65
90,60,58,56,127,60,62,62,58,59
43,56,72,62,58,70,54,57,61,56
106,68,67,67,66,70,70,70,30,67
70,37,34,34,130,38,39,38,133,130
95,78,78,77,75,71,85,85,64,78
69,63,60,60,59,64,65,65,34,62
88,64,60,59,42,50,65,65,44,67
51,66,68,67,65,68,68,67,61,61
102,30,29,29,29,34,32,31,37,28
53,75,74,74,70,75,75,74,69,69
94,68,65,64,64,68,68,68,35,67
127,67,65,65,63,68,69,68,63,65
33,47,51,52,51,63,51,49,57,50
88,70,70,69,67,69,73,70,65,70
50,66,67,66,63,68,68,68,62,61
90,66,64,64,64,68,68,68,64,64
93,31,31,30,34,36,34,33,42,33
90,75,73,72,71,72,81,78,29,129
48,51,36,52,52,52,52,52,51,51
89,72,71,71,71,72,80,75,65,71
42,53,63,63,56,64,55,55,57,51
52,75,74,74,70,76,75,74,70,69
37,49,53,54,51,62,40,40,57,50
91,67,67,65,63,68,70,68,30,65
95,68,68,67,63,68,70,68,28,68
92,66,65,66,62,67,68,68,30,63
93,67,66,66,62,68,68,68,29,67
75,130,130,129,127,133,89,88,136,88
99,73,71,70,70,73,75,74,30,71
54,68,74,74,70,73,69,70,68,63
68,64,60,60,131,59,64,64,131,132
60,71,72,71,70,74,74,72,129,67
96,65,64,64,61,66,67,67,29,64
78,58,58,58,54,48,62,61,37,58
46,59,39,39,62,68,45,42,61,61
94,66,65,65,62,66,69,68,62,66
96,70,69,68,66,70,72,71,29,67
87,70,63,63,59,61,70,67,60,62
76,42,41,54,43,42,41,40,54,57
82,36,33,36,32,38,38,36,50,31
98,67,65,65,62,67,68,68,29,98
62,75,81,81,77,81,78,76,75,72
99,70,68,67,66,70,72,70,30,67
90,65,62,63,60,65,67,65,31,67
33,41,45,45,45,49,36,35,55,43
55,69,73,72,69,73,72,69,69,65
98,66,65,65,65,67,68,68,29,65
94,85,77,77,76,76,91,90,70,91
97,67,66,66,63,68,68,68,129,66
106,97,94,94,90,93,98,98,74,97
92,66,63,63,63,65,68,66,30,65
38,52,68,62,55,66,55,53,58,50
99,67,66,66,26,69,70,69,30,66
95,67,65,65,62,68,68,67,29,64
94,72,65,64,64,69,72,70,64,65
96,67,65,65,62,68,69,68,30,65
92,68,67,67,63,69,70,69,29,65
101,70,68,68,66,70,70,70,30,68
94,92,92,92,88,92,93,93,87,92
96,66,65,65,62,67,68,68,29,65
43,60,66,61,61,64,63,60,60,57
98,65,64,65,62,66,68,66,30,65
69,66,66,66,63,68,68,67,33,66
92,48,36,37,59,58,40,41,53,53
65,79,83,82,82,84,80,81,81,77
60,69,74,70,69,72,70,70,129,66
101,69,69,67,66,71,71,70,30,68
41,56,55,53,51,56,53,56,133,51
50,68,77,76,66,74,69,69,70,64
61,75,80,79,75,78,77,81,74,72
92,65,64,63,61,66,67,66,30,63
82,70,70,70,70,69,78,78,47,78
67,64,62,62,60,63,65,64,35,63
96,66,64,64,62,67,69,68,29,64
67,30,29,29,29,33,33,32,35,29
66,82,87,87,83,89,87,84,94,79
58,75,75,75,75,78,75,75,74,74
89,83,73,69,69,71,86,83,66,85
90,74,72,71,69,71,85,79,66,75
96,65,64,64,60,67,67,67,32,65
39,50,49,52,51,64,46,46,54,50
100,67,66,66,64,69,69,69,30,66
97,65,63,63,60,66,66,66,29,63
75,32,31,31,29,35,35,34,37,30
61,62,33,33,128,37,37,36,131,128
72,69,68,67,65,70,70,69,66,67
95,68,67,65,63,68,68,69,31,68
70,66,65,67,67,68,69,68,32,66
101,64,62,62,24,65,64,64,33,61
109,97,98,94,89,93,103,99,35,99
89,63,60,60,96,64,64,65,40,60
114,109,108,100,100,99,108,108,77,108
97,31,52,49,42,42,61,33,37,32
46,59,66,65,63,70,58,55,61,52
91,64,63,63,60,65,67,65,31,63
99,64,63,63,60,66,66,65,32,62
68,68,62,64,70,67,67,68,31,67
73,68,67,67,62,68,68,68,62,68
96,68,68,68,129,68,70,69,65,130
96,66,65,65,62,66,68,67,29,65
99,65,63,63,60,66,68,66,30,65
96,68,67,66,65,68,68,68,64,67
100,66,65,65,64,67,68,68,29,65
98,70,69,69,66,70,73,72,30,68
93,38,35,35,69,39,37,39,32,67
50,68,74,72,64,72,71,72,67,60
66,66,55,55,68,44,63,63,36,68
93,88,83,79,78,78,88,88,30,88
93,68,68,67,65,68,71,69,64,129
126,69,77,67,67,71,71,69,67,125
39,57,66,65,60,64,57,55,57,54
65,38,36,37,33,40,48,39,38,63
60,72,76,73,72,74,74,73,129,67
94,70,67,67,127,69,71,70,129,68
103,104,70,70,26,72,76,74,30,104
67,31,30,30,27,34,67,33,34,29
94,65,64,63,61,67,68,68,31,65
36,49,60,55,53,60,52,51,55,48
29,66,66,65,64,68,68,68,36,66
80,38,36,41,41,41,40,39,49,40
50,69,74,70,66,72,72,71,66,61
59,71,70,70,68,73,74,73,132,67
91,86,81,81,80,81,87,87,69,86
61,65,68,65,68,68,68,67,133,65
138,31,39,38,30,39,47,29,29,29
96,67,67,67,67,68,70,70,29,67
97,70,67,67,65,70,71,70,30,102
52,68,75,71,71,75,75,71,68,65
41,59,63,63,55,63,50,59,59,53
97,67,67,66,65,69,70,68,29,67
90,31,29,29,32,33,65,32,39,29
92,66,64,66,66,69,65,67,67,64
93,65,63,63,62,66,67,64,36,63
60,74,74,74,74,75,70,69,131,66
102,65,63,63,60,65,67,65,29,102
31,44,44,44,41,47,44,44,41,41
92,69,69,68,31,72,60,59,62,64
108,76,74,72,72,80,77,76,81,74
85,73,73,73,72,75,75,74,65,74
90,79,75,74,73,74,83,83,66,81
57,73,74,74,73,76,76,75,73,70
69,31,29,29,29,33,33,32,37,29
66,78,80,77,76,81,81,81,128,75
74,81,84,85,81,85,84,83,89,78
94,67,66,65,64,68,69,69,29,66
29,35,63,63,62,63,67,68,39,33
40,51,34,56,55,55,50,52,52,48
62,70,58,74,70,71,65,62,31,69
52,69,75,73,69,76,70,71,70,66
60,111,109,111,113,113,109,111,110,109
100,62,60,60,58,62,64,63,29,61
67,64,62,62,61,66,66,66,29,62
63,77,78,77,75,79,79,79,131,70
70,65,63,63,61,65,67,66,30,63
32,45,44,50,47,56,45,47,54,43
67,81,82,78,78,83,83,82,129,78
32,80,79,80,76,82,82,81,40,33
93,67,66,66,62,69,69,69,31,66
59,78,79,78,75,81,81,82,77,71
94,67,66,65,64,67,70,68,64,65
30,31,30,30,30,37,33,32,39,30
40,58,66,62,61,69,58,68,58,50
41,37,34,34,32,37,38,37,130,34
33,46,63,50,49,60,47,47,55,47
37,60,70,65,60,68,56,55,60,56
101,68,67,66,65,69,70,69,29,67
111,108,106,103,103,101,107,108,88,106
96,67,66,65,64,67,69,68,29,66
101,66,66,66,63,68,69,69,30,65
60,40,38,38,34,41,41,40,40,41
75,58,43,43,58,42,48,48,55,57
93,65,63,63,61,65,67,66,33,63
42,126,35,35,126,39,39,38,129,126
59,72,78,77,74,80,71,74,74,69
88,66,64,64,26,66,68,67,33,28
76,33,30,31,34,38,34,33,41,32
58,73,72,70,70,73,73,70,70,70
93,62,58,56,62,70,60,62,66,60
34,52,52,52,49,64,52,51,58,50
93,64,62,63,62,65,65,65,29,62
87,62,59,59,57,63,62,62,60,57
66,29,62,28,26,66,67,65,32,27
94,68,67,67,129,68,69,68,29,67
97,67,65,64,63,67,67,67,29,64
92,72,70,69,68,70,75,74,65,69
89,65,63,63,60,65,65,66,28,63
94,66,65,65,62,66,67,67,30,63
103,91,88,88,84,88,92,91,43,91
68,30,62,29,26,33,65,65,33,28
44,46,35,43,49,48,46,47,58,44
98,67,67,67,129,70,71,70,28,66
91,67,65,65,61,67,68,68,30,65
51,66,77,73,63,72,60,62,69,61
88,69,74,66,62,69,75,72,34,65
59,71,72,71,66,73,73,72,129,63
100,70,67,68,65,69,72,70,30,68
68,79,78,78,74,81,80,80,83,74
98,67,63,63,62,66,68,67,29,63
93,95,76,76,74,78,94,89,33,95
108,79,78,77,77,84,80,78,48,77
91,67,67,67,65,69,69,69,66,67
88,67,66,67,63,68,69,67,61,66
55,39,37,38,35,40,40,40,36,39
80,80,84,80,27,123,123,123,126,82
86,35,35,34,30,38,37,37,47,32
97,65,65,65,63,67,67,67,29,64
68,69,67,70,71,69,68,70,34,69
94,66,64,64,61,66,66,66,30,63
91,71,71,68,66,70,71,71,68,128
67,78,77,77,76,81,79,77,129,71
54,64,65,65,63,66,65,65,131,63
91,68,67,65,65,67,69,67,65,66
37,60,59,59,61,63,40,62,134,61
107,90,89,87,82,85,92,88,36,90
95,67,66,65,62,67,67,67,30,64
97,66,66,66,62,67,68,67,29,65
95,72,68,68,68,71,72,72,29,69
83,33,32,32,30,37,36,35,43,30
107,92,93,91,91,84,100,100,38,92
66,52,50,50,125,52,54,54,127,127
46,61,60,59,59,64,61,59,59,59
89,29,59,28,29,44,64,31,34,30
92,66,65,65,129,67,69,67,62,129
95,63,62,62,58,64,65,65,29,62
69,66,64,63,62,66,67,67,31,64
33,40,40,41,43,46,36,35,49,37
81,41,38,40,40,39,43,41,51,43
73,65,59,32,31,35,67,65,37,64
44,63,74,71,62,74,62,65,65,60
47,65,65,65,65,66,66,65,133,65
63,82,82,82,79,85,82,84,76,76
80,35,33,33,30,37,37,36,40,32
105,33,98,32,28,36,103,103,39,30
90,68,68,66,66,68,71,68,66,68
99,68,67,67,65,70,70,70,30,67
66,101,62,101,100,47,66,64,38,100
96,67,66,66,62,68,69,69,66,66
95,69,66,66,65,69,69,69,30,66
93,68,66,66,26,69,69,69,32,28
48,66,76,74,69,74,70,74,68,60
88,67,65,64,64,67,70,68,29,65
73,58,58,55,57,54,58,58,41,58
40,53,52,59,59,56,59,56,61,50
50,63,75,70,65,74,66,65,70,60
94,67,65,63,63,66,67,67,31,64
44,39,35,36,32,39,40,39,129,40
33,39,46,51,50,61,38,37,53,40
94,81,80,78,77,78,84,84,72,82
91,67,67,67,63,66,70,68,63,67
82,58,54,51,54,48,59,57,61,55
37,54,53,54,55,65,53,50,56,52
46,60,67,65,63,68,60,62,62,58
95,66,64,66,61,66,68,67,30,66
68,67,66,63,63,67,67,65,129,65
89,73,71,72,69,72,74,73,66,72
88,30,29,29,30,33,64,64,36,27
63,38,38,37,40,43,35,34,37,37
50,67,78,75,66,76,66,66,63,61
99,72,69,69,67,72,73,72,31,71
71,33,32,33,28,39,70,71,35,30
99,70,70,68,68,71,71,71,30,70
89,67,66,66,64,69,69,68,38,66
99,66,65,65,62,65,68,68,30,63
35,52,53,54,53,64,48,46,57,45
39,108,106,56,60,65,108,108,65,61
56,69,74,72,70,72,71,70,130,68
83,94,96,95,95,97,86,85,93,91
106,83,76,76,76,79,90,90,37,85
55,75,75,75,69,76,78,76,69,64
79,32,31,31,30,35,35,34,41,32
98,63,62,62,60,65,66,65,30,62
90,99,102,101,96,102,102,101,98,96
96,102,66,65,101,67,67,67,30,100
47,70,74,70,70,74,63,63,70,60
100,68,67,67,64,68,68,68,31,66
70,78,77,77,73,80,80,79,132,74
90,70,107,116,116,115,90,71,122,92
54,57,52,53,50,57,57,54,20,50
67,64,62,62,60,64,67,65,30,62
51,71,79,75,74,76,70,68,72,64
71,64,61,61,60,63,67,66,61,61
61,69,75,74,72,74,72,74,69,67
62,63,59,59,68,64,63,62,73,62
59,71,71,71,70,76,70,70,74,69
88,66,63,64,66,66,66,66,31,66
94,64,63,63,60,66,66,66,31,62
59,59,46,44,42,47,61,60,67,61
37,51,65,56,51,62,50,51,56,47
46,66,73,72,69,73,68,67,69,63
92,65,63,63,60,66,67,66,30,63
46,64,69,68,65,68,67,65,64,62
99,69,68,68,65,71,73,71,30,67
90,91,90,95,95,94,90,91,93,94
54,48,46,47,42,47,48,49,34,48
88,93,93,94,93,98,93,93,97,92
66,64,63,63,26,66,66,66,32,63
95,70,70,70,129,70,71,71,66,130
39,61,62,62,60,72,59,60,64,59
100,67,66,66,63,68,69,68,30,65
89,67,67,67,63,68,70,70,66,128
89,66,64,64,64,68,68,66,33,64
37,56,63,60,56,63,59,54,56,53
41,62,66,66,62,65,62,62,61,62
98,65,63,65,61,64,64,65,32,61
55,68,74,72,69,75,76,74,66,65
64,34,31,31,38,37,37,34,38,33
49,71,71,71,65,75,74,72,65,56
84,37,36,34,40,48,38,39,53,38
74,67,66,64,62,68,69,68,30,64
94,66,65,65,62,67,68,66,29,64
93,65,64,64,61,66,66,65,32,64
49,62,80,65,62,74,65,64,66,58
110,99,97,97,93,99,100,100,45,97
100,71,70,70,132,70,73,73,30,73
77,34,32,38,38,37,36,35,43,33
73,95,95,95,87,95,100,98,87,85
104,93,93,93,92,38,98,99,36,93
60,73,76,77,72,80,61,60,82,66
100,66,65,64,63,66,68,68,29,64
58,70,34,35,73,35,38,36,35,62
56,70,75,74,70,75,75,77,133,65
88,75,74,73,71,74,78,79,67,75
123,124,124,124,124,124,124,124,130,125
98,68,66,64,63,68,69,69,64,66
54,69,34,69,63,37,38,38,61,61
84,56,55,55,29,41,63,63,35,31
70,66,66,66,63,69,69,69,29,66
53,68,77,75,71,75,69,69,71,63
90,95,96,95,95,95,95,92,92,94
90,69,67,67,66,69,69,69,64,67
96,64,62,62,59,64,65,64,29,97
73,67,65,64,63,67,68,68,32,65
96,66,65,65,62,67,68,68,29,63
93,69,68,68,64,70,70,69,33,68
103,32,31,32,32,35,35,34,40,32
67,67,64,63,62,67,68,67,30,63
69,39,38,38,37,37,38,41,37,38
108,95,91,90,92,95,95,95,44,92
36,42,42,43,45,47,41,37,51,41
92,81,78,78,75,76,84,84,72,80
90,68,68,67,65,68,71,71,30,67
56,67,69,70,65,74,72,71,71,59
94,67,66,66,63,68,69,68,29,66
56,68,75,74,68,72,76,75,133,63
89,67,64,62,62,67,67,65,31,64
91,67,65,73,62,70,67,67,35,64
94,30,29,29,25,33,64,63,33,27
68,82,83,81,80,82,78,81,129,81
94,70,66,66,64,70,70,70,32,66
98,67,66,63,63,67,67,67,29,65
101,30,65,29,27,69,69,68,33,27
35,49,62,59,55,57,46,48,54,47
99,65,65,64,62,68,68,68,30,63
90,69,68,68,128,69,71,71,30,130
91,70,72,68,127,69,71,72,65,128
71,68,67,67,65,68,70,70,29,66
94,69,66,66,63,69,70,70,29,66
91,70,70,67,67,68,72,70,63,70
34,49,48,49,49,59,37,36,54,46
112,32,31,31,33,37,33,32,43,30
44,56,66,61,59,69,55,55,62,54
91,46,42,42,126,49,44,45,61,128
95,67,65,65,65,68,68,69,28,66
35,62,66,64,64,67,61,64,64,59
91,72,71,71,71,72,74,74,64,71
119,131,32,132,132,132,37,40,134,131
50,61,66,61,62,70,64,62,132,58
45,37,34,35,32,38,39,38,134,42
69,82,81,81,77,85,85,84,129,78
94,70,69,69,132,71,72,72,29,99
97,66,64,64,62,66,67,67,130,64
94,68,66,66,62,68,68,68,29,67
36,105,106,105,103,45,35,36,103,104
35,48,47,50,50,60,37,36,49,47
119,131,131,132,131,131,129,131,133,127
56,68,77,75,69,78,77,68,69,63
70,66,63,63,60,66,66,66,29,63
95,65,65,65,62,66,67,67,29,65
62,62,61,38,38,38,61,64,40,63
64,65,59,57,124,44,63,61,33,61
92,31,30,30,29,34,68,67,36,29
83,40,36,37,39,43,42,40,56,40
100,70,68,68,67,70,71,71,30,68
44,56,56,56,54,68,54,53,58,54
60,36,34,34,30,38,38,39,35,43
78,35,32,40,38,52,35,35,47,36
87,98,98,98,98,99,98,98,97,96
72,81,80,80,78,82,80,37,126,79
102,71,70,70,69,72,74,71,30,70
42,45,40,52,52,59,45,41,58,41
50,63,62,61,130,63,63,63,133,129
92,66,64,64,64,67,67,67,64,63
91,64,58,57,67,48,63,62,40,63
65,65,59,59,59,64,64,65,37,65
103,30,29,29,25,33,66,66,30,27
93,63,62,60,59,64,65,64,33,60
64,78,84,83,76,82,81,83,72,72
68,38,35,35,31,39,39,38,128,126
99,68,66,66,64,70,70,69,30,66
90,69,68,67,127,68,71,71,64,129
87,66,65,65,26,67,69,68,31,97
48,71,74,72,68,73,70,69,69,61
110,65,63,62,64,66,67,66,38,63
87,71,70,70,67,71,73,72,67,70
104,70,69,69,65,70,71,70,30,69
47,61,65,65,61,63,57,55,60,53
79,35,33,33,30,37,77,77,41,32
96,67,65,65,64,67,69,68,29,64
90,70,70,70,68,71,73,72,29,70
43,56,66,60,56,65,61,58,58,54
94,68,66,66,64,68,70,68,129,67
76,31,30,31,31,35,34,33,44,31
89,63,61,63,62,52,67,64,67,92
104,98,94,93,93,96,98,98,38,98
96,66,65,65,62,67,69,68,29,64
62,85,84,84,87,87,85,85,94,85
96,67,65,65,61,68,69,68,30,65
91,67,47,44,43,43,65,60,39,60
96,66,66,66,63,67,69,69,29,66
92,69,69,66,65,68,69,67,65,65
89,130,130,130,129,73,78,76,129,129
97,65,64,65,62,66,66,66,31,63
88,98,99,98,98,100,99,99,39,94
95,65,63,64,129,66,67,66,29,65
89,70,69,69,66,70,73,72,66,68
74,68,68,68,68,69,73,70,31,68
87,85,70,70,67,72,87,86,64,94
104,69,68,68,65,70,106,106,30,106
66,42,31,32,32,42,42,45,32,42
70,64,63,64,60,66,67,65,29,62
91,65,78,64,126,71,86,86,33,62
87,71,73,73,66,73,74,73,67,68
90,64,59,58,59,64,62,64,33,61
96,67,70,67,63,68,68,68,32,64
96,64,62,62,96,65,66,65,36,97
96,63,63,63,60,64,65,63,29,98
92,69,68,66,66,69,71,70,66,68
92,30,60,29,29,33,65,32,35,27
96,68,66,66,65,68,70,70,29,66
94,67,65,65,63,68,68,68,30,65
102,67,66,66,63,69,70,69,29,65
99,68,67,67,65,69,71,69,30,67
92,68,69,68,127,68,69,68,67,63
96,65,65,65,64,67,67,67,29,65
95,68,65,65,63,68,70,68,30,65
95,67,65,64,62,67,67,67,29,65
68,65,63,62,60,65,66,64,30,63
69,79,83,86,80,84,82,81,90,75
62,68,59,57,68,65,65,62,68,63
65,104,106,105,99,50,65,64,103,101
65,62,56,46,46,46,61,60,34,60
97,67,66,65,62,67,68,67,64,66
92,67,66,66,63,68,68,68,63,65
96,68,67,68,64,69,70,69,65,66
94,70,67,67,65,69,70,70,31,67
96,64,64,64,62,67,67,67,31,64
92,64,61,61,58,65,66,64,33,63
92,67,66,66,65,68,69,69,30,66
87,73,72,72,70,72,75,75,68,72
90,81,75,74,73,75,83,81,66,81
91,67,65,65,62,67,67,67,30,67
92,71,70,70,127,70,73,74,65,128
99,30,28,29,28,32,32,31,33,28
94,67,65,65,63,68,68,68,29,65
94,64,64,61,63,63,70,64,33,64
92,65,64,64,64,66,67,66,29,64
96,66,64,64,62,67,67,67,30,64
94,66,64,64,63,67,67,67,130,66
56,60,61,62,64,70,66,63,90,65
92,86,86,83,85,83,89,89,79,87
92,64,60,59,64,64,64,65,37,65
92,68,68,63,64,68,69,68,32,64
97,67,66,66,129,68,69,69,30,64
98,66,64,64,61,66,68,66,29,64
92,68,68,66,65,68,70,68,63,66
96,67,66,65,129,68,69,68,30,67
88,70,67,66,66,69,70,70,65,69
92,69,67,67,64,69,70,69,30,69
89,65,64,63,62,66,67,67,33,64
96,67,66,66,63,68,69,68,29,68
91,70,70,68,64,70,71,70,29,65
73,69,69,69,129,70,72,71,29,69
94,66,65,65,62,68,69,68,30,65
66,66,62,62,66,66,66,65,31,64
92,67,65,66,63,69,70,68,36,28
96,67,66,66,66,68,69,69,30,67
73,69,68,67,66,70,71,71,66,68
74,70,69,68,130,71,72,71,67,131
84,91,92,93,92,102,89,90,96,90
96,67,66,65,67,68,69,68,29,67
94,60,58,31,27,39,61,58,30,58
93,65,63,63,60,65,67,65,29,63
96,73,71,71,71,74,75,74,31,73
100,68,68,68,63,69,71,70,30,103
96,65,64,64,24,65,66,65,29,64
65,37,34,34,30,39,64,64,35,32
66,65,63,63,62,66,66,66,31,63
67,65,63,62,59,65,66,65,29,63
71,67,65,65,64,68,69,67,29,64
91,77,75,75,72,72,80,80,65,77
92,66,65,65,61,68,69,67,30,64
101,73,71,70,66,70,73,73,30,73
87,66,63,63,60,66,66,66,33,64
94,67,66,66,128,69,69,69,30,65
91,70,70,68,66,69,71,70,65,68
98,65,65,65,62,66,67,66,29,64
100,63,60,59,58,64,64,63,40,62
95,68,68,68,128,69,69,69,64,129
98,42,47,47,36,46,46,43,129,39
97,62,59,59,65,63,64,62,32,61
92,66,65,65,63,67,68,68,63,66
34,45,52,52,45,50,67,58,44,43
85,66,64,64,60,66,68,66,30,66
70,65,65,64,61,66,68,68,29,65
89,68,67,67,67,67,70,70,63,67
89,61,57,57,43,65,61,61,61,60
97,65,64,64,62,67,68,67,130,64
93,67,65,65,63,68,68,68,30,65
65,59,46,42,46,41,61,59,31,59
69,67,65,65,62,68,68,67,30,65
99,64,62,62,59,64,65,64,28,62
68,65,63,63,59,65,67,66,28,64
88,65,62,65,58,66,65,65,29,67
100,71,71,71,131,72,73,72,30,132
96,68,68,67,65,68,70,70,30,66
96,65,64,62,62,66,66,66,30,62
88,68,67,67,66,68,71,70,66,67
96,65,65,65,61,66,67,66,130,64
99,69,68,68,65,69,71,69,30,67
71,73,69,84,79,90,73,72,102,74
68,62,59,30,26,34,62,62,34,62
66,61,58,57,57,45,64,62,35,62
91,71,68,68,68,72,72,71,30,68
87,65,61,62,96,66,66,66,95,93
91,67,67,67,63,67,67,67,30,67
102,69,66,65,65,69,70,69,29,65
68,40,49,48,36,47,66,64,39,36
91,66,65,65,65,68,68,69,32,65
90,67,66,64,64,66,69,69,29,66
71,67,65,65,63,68,70,68,65,65
96,68,67,67,129,68,68,68,63,65
101,102,69,69,66,69,70,69,30,101
91,65,62,62,60,66,65,65,30,62
88,75,72,72,70,73,79,79,68,75
92,64,63,62,61,64,66,66,28,63
92,67,65,64,63,68,68,68,31,64
64,63,58,31,27,34,63,62,32,63
70,65,64,64,58,66,65,65,30,65
90,70,69,69,66,71,73,72,30,67
92,66,62,62,59,66,66,66,38,30
97,66,64,64,62,67,67,67,28,66
97,67,66,65,130,68,69,69,65,66
68,67,64,64,63,67,67,67,129,64
97,68,68,67,130,68,69,68,29,131
96,65,63,63,61,66,66,66,30,63
99,62,60,60,58,62,65,63,29,60
90,102,102,102,99,102,109,109,113,96
60,71,70,72,69,75,70,70,74,68
95,65,63,62,64,68,65,65,62,64
88,69,66,66,63,69,70,70,29,65
99,70,68,68,131,71,72,71,67,68
96,69,67,67,64,68,70,69,29,65
93,67,67,67,64,67,71,68,31,66
72,69,67,67,63,69,70,70,30,67
94,65,64,65,60,67,68,67,29,62
97,65,63,62,61,65,67,66,29,63
95,68,66,66,62,69,69,69,30,68
70,66,64,64,64,67,67,67,33,65
91,31,30,30,26,34,68,68,33,28
64,73,49,43,45,39,65,62,32,70
90,72,71,71,128,72,72,72,64,72
63,64,30,30,32,34,64,62,35,64
102,67,67,66,64,69,69,68,29,103
29,30,29,29,29,33,32,32,33,27
70,65,63,63,61,65,67,65,29,63
65,62,61,58,57,63,64,63,33,63
98,65,64,64,129,66,67,67,28,63
94,68,66,66,64,68,69,69,30,66
62,64,73,71,67,38,63,61,33,60
90,64,63,63,128,64,65,65,63,64
102,66,65,65,63,67,67,67,29,65
96,65,64,64,27,34,69,65,32,64
96,66,64,64,62,66,67,66,31,64
103,67,66,66,65,68,69,69,30,66
101,65,63,64,61,65,66,66,30,62
62,68,40,36,41,41,60,62,37,67
95,67,65,66,63,67,69,69,29,65
92,66,65,65,63,67,68,68,63,63
92,45,48,46,45,48,56,47,46,42
94,69,67,67,129,70,70,70,65,130
75,68,65,65,127,68,69,69,32,66
95,65,64,64,61,65,68,67,29,64
102,67,67,67,63,69,69,68,63,67
91,67,71,64,61,67,67,68,64,63
96,69,66,66,128,69,70,69,129,67
99,70,68,67,131,70,71,70,30,68
97,66,65,64,129,66,67,68,29,64
87,71,70,70,69,69,74,71,66,69
92,82,80,77,72,72,80,82,63,82
86,67,67,67,65,67,67,68,62,67
83,84,83,84,84,85,85,84,84,85
101,102,66,66,27,68,68,68,32,101
95,65,63,63,61,66,67,66,30,63
95,68,68,67,128,67,71,68,63,130
67,61,55,55,126,56,63,61,128,128
98,68,65,65,65,68,68,68,32,65
94,67,64,64,62,68,69,68,31,64
88,66,65,63,61,69,66,68,58,63
96,69,68,67,64,69,70,69,30,67
103,69,66,66,26,69,70,69,31,28
91,67,66,66,63,69,70,69,31,65
90,67,66,66,62,68,71,69,30,66
96,64,62,62,62,66,65,64,31,61
91,68,67,67,128,68,72,69,64,129
95,67,66,66,62,67,69,67,31,66
89,68,62,64,68,67,67,64,37,66
96,64,64,64,62,67,66,66,30,64
93,65,62,62,59,65,65,65,35,62
98,66,65,65,62,66,68,67,29,65
94,66,65,65,63,67,68,68,30,64
89,66,57,59,60,69,63,64,59,61
70,67,65,65,63,68,70,70,34,67
96,64,63,64,61,66,67,66,31,62
96,68,67,66,128,68,70,69,62,67
96,65,63,63,60,65,67,65,29,63
84,66,66,64,64,66,69,68,28,63
127,31,128,30,126,34,34,33,30,126
97,131,69,131,129,69,71,70,29,130
91,70,69,69,129,69,72,72,66,130
100,69,68,68,131,69,69,69,30,68
69,66,64,64,61,66,68,66,31,64
88,69,68,68,100,70,72,69,33,98
86,64,61,58,94,65,62,61,98,89
95,67,67,66,63,68,69,68,29,66
97,66,65,66,61,67,69,68,31,66
86,68,67,67,65,68,70,69,65,67
90,75,75,75,129,74,74,76,31,130
100,71,68,68,67,72,72,72,30,68
97,68,66,66,64,68,69,69,30,66
93,63,62,63,59,65,66,65,30,62
85,71,71,68,68,71,75,72,66,71
96,68,66,66,64,68,69,68,30,66
75,69,66,66,63,69,69,69,30,66
54,60,59,58,58,63,62,60,67,59
97,98,97,97,53,51,101,98,48,48
79,73,72,72,130,73,75,75,34,130
93,65,63,64,61,66,67,65,64,65
104,68,68,68,65,70,70,69,30,67
94,66,65,65,62,66,66,69,30,65
90,101,102,101,101,101,101,100,100,98
100,63,62,62,59,64,66,64,28,62
59,60,60,56,64,65,62,57,56,58
70,66,64,64,62,67,67,67,30,63
95,66,65,63,60,67,67,67,29,63
75,70,70,70,127,70,71,71,32,70
95,68,65,65,64,67,68,68,65,65
65,63,60,60,61,64,64,63,60,61
91,69,68,68,128,69,72,70,65,129
61,31,29,36,34,42,33,32,36,35
95,73,72,71,131,72,74,73,68,70
90,65,63,63,26,66,66,66,33,64
90,65,63,64,64,66,65,65,64,63
98,29,28,28,26,32,63,31,33,26
100,66,65,65,63,68,68,68,30,65
61,64,54,49,67,43,63,61,36,65
92,67,65,65,62,68,68,67,32,65
100,69,67,67,104,70,70,69,31,103
98,69,68,68,65,69,71,71,30,68
93,69,67,66,127,69,69,70,30,68
90,71,68,68,128,70,72,71,65,129
97,68,66,66,63,68,69,69,30,66
97,66,66,65,65,68,68,68,65,66
89,67,66,66,63,67,70,67,29,64
89,67,67,67,67,67,73,68,64,67
87,69,70,67,66,70,88,88,35,92
69,68,49,49,52,52,59,59,29,66
94,66,66,65,64,68,69,69,64,64
86,95,99,99,97,99,92,97,96,92
68,65,63,63,62,65,67,66,30,63
96,73,71,71,131,73,82,81,29,97
92,76,73,73,73,72,78,78,65,76
69,64,64,59,60,64,67,64,129,64
98,63,62,62,59,63,65,65,29,98
94,67,67,67,67,70,70,70,65,68
73,67,66,66,66,66,69,68,36,66
86,64,63,98,95,99,66,64,95,93
91,71,71,68,65,70,71,71,65,66
97,67,67,66,129,68,69,68,63,130
92,63,61,61,61,65,65,66,33,61
95,66,66,66,62,67,68,68,29,66
99,30,29,29,29,33,33,32,36,30
40,62,88,84,72,89,62,60,80,62
89,71,69,68,68,70,73,73,64,69
88,72,71,69,69,69,74,76,65,69
92,70,70,68,68,71,71,70,65,128
101,68,67,67,63,68,68,68,30,67
98,70,70,69,130,71,73,72,30,70
93,69,68,64,64,64,69,66,61,65
100,65,63,63,62,66,67,66,30,63
96,66,64,64,25,67,68,67,29,27
95,67,66,66,65,67,68,67,30,66
94,30,61,34,31,33,66,64,37,28
99,66,65,65,129,68,68,68,29,65
95,67,65,64,62,67,68,68,30,65
95,73,70,69,69,73,78,74,31,99
64,46,47,47,43,48,63,48,43,41
72,30,68,29,25,32,71,70,29,27
60,63,55,56,64,60,59,58,64,58
97,66,65,65,61,66,68,68,29,64
90,68,66,68,65,68,70,70,29,68
65,32,31,31,30,42,35,34,33,32
91,69,67,67,65,69,70,69,31,67
71,63,61,62,57,65,65,66,35,65
89,72,72,72,68,71,82,73,65,129
93,65,64,64,62,67,67,67,30,62
101,68,66,66,64,68,70,68,30,66
88,66,65,64,61,68,68,66,31,65
95,68,68,68,66,69,71,69,64,68
90,67,64,64,64,68,68,67,64,66
86,71,70,68,128,69,71,72,66,129
98,70,69,69,66,70,72,71,30,101
100,71,71,71,69,72,74,72,30,71
94,66,65,63,62,67,68,67,29,64
93,65,64,65,63,66,68,65,30,65
74,77,45,84,43,96,78,76,86,83
88,66,64,64,63,67,68,67,64,64
96,67,66,66,63,68,69,68,130,66
89,70,67,67,63,69,70,70,63,69
74,50,48,48,45,53,52,51,47,47
77,92,63,63,95,94,94,93,32,93
92,67,63,64,67,67,66,65,35,66
95,66,65,64,128,67,68,67,63,65
68,66,64,64,61,67,68,68,31,64
64,67,59,59,63,64,65,65,60,61
97,69,67,65,63,68,71,70,30,69
94,70,66,62,62,71,70,70,62,65
96,65,65,65,60,65,68,67,30,65
97,67,66,67,63,67,68,68,29,65
96,69,69,69,65,71,71,71,29,69
97,67,65,65,62,67,67,67,32,65
79,73,70,70,69,73,74,73,30,70
90,70,69,69,68,69,72,72,64,70
90,98,98,98,98,99,99,98,38,96
65,36,45,43,37,46,64,62,41,32
97,69,69,69,130,71,73,72,30,69
86,73,71,70,67,70,75,74,65,70
100,70,69,70,66,70,72,71,30,69
87,67,66,66,63,68,68,68,30,66
100,69,69,67,67,71,72,72,30,101
72,67,66,66,128,67,69,68,62,66
75,63,62,32,28,38,64,62,33,62
89,74,73,73,70,73,77,74,68,73
91,67,66,65,64,68,67,68,30,65
77,73,72,71,130,71,75,73,66,131
96,65,64,63,61,66,66,66,30,64
69,64,64,64,62,66,66,65,29,64
89,69,69,66,66,68,71,71,63,69
96,67,64,64,61,66,67,67,30,64
68,67,63,63,123,68,67,67,126,66
101,68,68,67,66,69,70,69,30,102
96,68,67,67,66,68,69,68,66,66
95,67,66,65,65,68,68,68,30,67
66,70,62,60,70,66,66,67,34,63
67,65,64,64,62,67,67,66,29,64
62,100,100,100,99,101,101,101,98,98
90,69,68,68,103,72,72,72,33,28
91,66,63,33,32,35,66,66,39,64
99,64,62,62,25,64,64,65,29,62
94,68,66,66,63,68,70,68,32,66
74,70,69,69,69,72,72,71,31,70
92,62,60,30,26,34,64,63,33,62
90,67,66,67,64,67,69,68,65,128
100,70,67,66,26,70,70,70,30,28
91,66,64,64,61,66,66,66,30,64
65,65,62,61,128,67,64,65,62,63
95,64,64,63,60,66,66,65,29,63
56,69,70,71,67,77,65,64,73,66
68,67,64,64,63,68,68,67,32,65
91,63,60,30,68,34,64,63,37,63
39,42,42,41,39,44,43,42,123,39
100,66,65,65,62,67,68,67,29,64
64,77,76,76,77,79,66,64,83,74
95,66,64,63,63,67,68,69,30,65
93,66,64,65,62,67,68,67,30,64
89,74,73,73,72,72,81,81,65,74
93,68,68,68,128,69,70,69,29,68
88,63,71,71,41,47,60,60,40,41
64,60,59,59,60,60,63,64,31,60
67,65,62,62,129,64,65,65,137,64
97,70,69,69,69,69,73,71,30,68
62,102,104,102,102,104,62,62,101,100
80,68,67,65,65,68,68,67,60,66
92,67,67,67,67,70,69,70,30,68
65,36,46,40,37,46,64,63,41,34
88,70,68,68,66,72,72,71,30,68
98,66,65,65,61,67,67,66,29,65
100,73,72,71,132,73,76,76,68,133
95,67,65,65,62,68,68,67,30,67
92,64,62,63,63,66,66,65,31,64
65,42,44,44,41,45,33,33,42,42
96,67,66,66,63,69,69,68,29,65
30,34,34,34,34,46,33,32,41,32
93,71,70,69,128,73,74,73,30,69
94,65,65,65,26,67,67,66,31,65
69,68,65,65,65,68,68,68,31,68
93,66,63,65,60,66,67,65,63,63
29,30,28,29,29,32,32,31,34,29
64,30,29,29,25,33,62,61,31,27
90,70,68,67,127,69,70,73,66,68
104,67,66,66,65,68,70,69,30,66
92,69,69,69,128,69,71,70,66,129
100,71,70,70,69,72,74,74,30,71
72,68,67,67,129,69,71,69,65,67
92,31,61,60,35,47,64,61,36,31
91,73,74,72,71,71,80,77,64,73
99,65,64,63,62,66,67,66,30,63
99,65,64,64,60,66,68,66,29,65
94,66,66,66,63,68,69,69,30,65
92,65,63,60,60,68,63,65,33,62
39,109,108,108,108,107,109,109,69,109
91,66,63,63,25,66,66,66,30,63
104,72,71,70,67,74,74,74,31,70
64,63,58,55,58,54,64,63,33,60
66,41,48,47,41,48,43,43,38,38
95,66,65,65,63,67,68,67,63,63
88,69,69,67,67,69,70,69,66,69
71,65,64,37,35,41,69,66,39,65
95,66,64,64,62,67,69,67,63,64
67,66,63,63,60,66,66,66,29,62
96,66,63,63,25,67,67,66,30,63
89,98,71,71,97,72,86,87,30,96
82,70,69,68,66,70,72,70,66,68
70,66,65,63,62,66,67,66,29,65
94,66,65,65,62,67,67,67,30,65
97,67,65,65,128,68,68,68,28,65
100,70,69,69,65,71,71,70,31,70
99,61,59,28,25,32,63,62,29,98
98,67,67,67,62,68,68,67,31,67
93,31,30,30,30,33,33,32,37,29
100,65,63,63,64,66,66,65,33,65
97,67,65,65,61,66,69,67,31,65
98,64,63,63,61,65,66,66,28,64
91,70,69,69,67,70,72,73,66,69
90,69,69,67,65,69,70,70,29,69
98,67,65,65,129,67,67,67,63,65
70,66,65,64,64,67,68,67,29,66
94,65,65,65,128,67,69,69,129,129
101,102,63,63,62,65,66,66,29,99
58,71,38,38,35,38,55,54,30,63
105,66,65,65,63,67,68,67,29,65
100,65,64,63,62,65,67,66,29,63
88,68,66,66,63,68,70,69,32,66
89,68,67,67,63,70,70,70,29,65
73,68,67,67,63,68,68,68,128,66
100,66,65,65,62,68,68,67,31,64
76,31,30,30,26,33,72,71,36,28
86,65,62,29,25,66,67,65,32,27
99,69,69,68,131,70,71,71,67,69
100,67,67,66,66,69,70,69,29,67
72,68,67,67,63,69,70,69,31,67
89,68,65,65,127,67,68,68,64,128
103,71,70,68,66,71,73,71,30,70
61,61,58,68,68,42,61,61,68,66
73,67,66,66,62,67,67,68,28,65
97,66,64,64,64,66,66,66,29,64
99,64,64,63,60,65,65,65,28,63
97,67,65,64,129,68,72,71,30,65
95,67,65,65,62,68,70,68,29,67
97,67,65,66,64,69,69,68,30,64
90,74,74,71,131,74,74,74,67,132
102,72,70,70,69,72,74,72,30,72
127,67,64,64,62,69,66,65,67,64
64,64,60,57,64,46,64,64,36,61
96,66,64,65,61,67,68,67,29,64
98,65,63,62,129,66,66,66,29,62
94,64,63,64,61,65,66,65,29,63
89,69,65,70,62,69,70,70,32,65
91,67,66,68,64,67,68,68,63,64
67,65,64,64,61,67,67,66,30,62
96,72,71,70,69,74,75,75,31,70
89,68,66,66,63,66,68,68,65,65
67,66,65,65,62,66,66,66,62,65
77,66,66,65,64,67,68,67,31,66
96,66,64,64,61,67,67,67,30,64
90,71,71,71,71,71,79,81,30,95
99,69,68,68,68,71,71,71,68,68
66,66,62,62,66,66,66,66,32,66
93,69,69,67,127,70,70,70,64,66
66,31,30,30,30,34,34,33,37,29
105,69,69,67,25,70,70,70,29,67
94,66,63,63,63,66,66,68,30,64
97,64,63,63,63,66,68,66,29,63
97,67,66,65,62,68,69,69,30,65
97,65,63,63,59,65,66,65,29,63
94,67,65,65,63,67,68,67,30,65
67,29,28,28,25,32,66,65,30,26
87,71,70,69,65,72,72,70,64,67
67,64,62,62,59,65,65,65,129,63
100,68,67,67,66,70,70,70,30,67
96,65,64,64,62,66,67,66,29,64
92,31,30,37,34,43,33,33,35,36
101,31,29,30,26,33,68,66,30,28
86,73,71,70,68,71,75,75,66,73
94,70,67,63,63,72,72,70,32,69
64,29,28,28,25,32,65,62,32,26
95,67,65,65,64,68,68,67,64,64
46,48,48,47,45,81,79,79,83,79
91,73,71,71,68,71,74,74,66,73
95,66,62,63,63,66,66,67,31,63
64,64,71,71,70,64,63,60,33,62
93,65,64,63,62,66,69,67,30,64
95,67,65,66,63,67,68,67,30,66
92,67,66,66,63,68,71,68,29,65
69,68,65,65,62,68,68,69,28,64
89,89,71,68,70,70,89,89,36,92
99,69,68,68,66,69,71,69,30,100
56,62,60,61,61,76,63,62,96,60
97,64,63,64,64,66,66,66,30,64
92,101,101,101,101,48,101,101,41,100
105,67,66,66,64,69,69,69,33,28
93,66,65,65,62,66,69,67,30,67
66,64,61,60,60,62,65,65,60,61
104,67,67,67,64,69,71,69,30,66
64,64,62,63,66,66,65,65,31,62
92,65,63,63,60,64,67,65,32,63
99,66,65,65,62,68,69,68,30,65
70,64,63,63,59,65,66,66,36,64
100,63,61,61,26,64,64,64,34,61
63,61,29,29,27,33,62,62,34,60
72,67,65,65,62,67,67,67,30,67
91,65,61,61,61,66,65,63,61,62
64,64,63,59,60,49,66,64,39,61
63,61,59,58,61,63,62,61,129,60
96,72,70,70,68,72,73,73,30,70
99,67,66,131,129,67,69,68,27,131
34,41,45,43,43,44,43,43,42,43
97,64,64,64,62,65,67,65,29,64
91,92,74,73,28,72,93,91,35,30
99,68,68,68,67,69,71,70,30,68
89,66,65,64,64,66,68,66,37,66
99,66,66,66,63,67,70,67,32,66
63,64,62,59,68,47,64,64,43,61
89,70,69,67,128,69,72,72,64,70
97,66,65,65,61,67,67,66,63,64
94,67,65,65,63,67,69,68,31,65
98,69,66,66,130,69,69,69,65,66
96,67,65,65,65,67,68,68,63,65
104,69,68,67,66,70,72,71,30,67
90,64,60,60,34,47,64,62,38,31
92,67,67,67,64,67,69,69,64,66
96,66,63,63,62,66,66,66,28,63
83,82,81,79,81,84,83,83,86,82
98,64,63,63,62,65,66,66,30,62
96,67,65,65,129,67,68,67,63,130
65,63,49,49,45,49,65,63,44,64
63,127,44,126,122,44,49,46,125,124
59,67,71,72,67,75,63,61,76,64
91,65,62,58,65,65,65,63,62,63
92,83,77,74,74,75,83,84,68,82
96,65,65,64,63,67,68,68,29,65
90,68,65,66,63,70,70,68,32,66
97,72,71,70,69,72,75,73,30,69
81,86,85,86,87,89,85,85,93,85
100,70,68,68,130,137,138,72,29,131
89,71,71,68,68,71,75,75,67,70
93,68,67,67,63,68,70,68,30,68
62,39,38,31,27,36,38,38,31,38
63,72,75,75,71,80,74,73,75,69
98,65,63,63,62,66,67,66,29,63
93,72,72,70,69,70,72,72,67,29
98,69,68,68,64,71,71,71,33,66
90,66,65,64,62,66,67,67,62,63
62,73,60,55,66,65,62,62,31,66
96,67,64,64,25,67,68,67,29,64
101,66,65,65,63,67,69,67,30,65
92,69,68,66,128,68,71,69,29,129
62,86,86,86,86,91,86,88,94,85
92,66,65,65,62,67,68,68,130,66
99,65,64,64,62,66,68,67,28,64
98,66,65,64,129,66,67,67,29,64
95,66,64,64,61,67,67,66,29,64
70,67,66,65,130,67,68,68,64,66
88,70,70,69,128,70,70,70,66,70
92,75,74,72,70,73,85,78,65,75
69,67,66,66,62,69,69,69,30,65
97,68,65,65,62,69,70,68,29,65
88,67,64,64,64,68,68,67,30,64
96,66,64,64,61,66,68,68,30,65
92,67,67,67,64,67,70,70,30,66
97,105,68,68,26,71,72,71,31,102
131,70,69,68,129,70,71,70,66,130
95,71,70,69,68,71,71,71,29,69
94,69,68,66,65,69,70,70,129,67
100,70,69,69,66,71,73,72,30,68
94,67,66,67,67,68,71,68,29,27
104,105,104,104,130,105,106,104,28,102
62,37,45,40,32,35,34,34,30,33
73,69,68,68,65,69,72,69,65,68
90,62,60,61,58,65,63,60,61,59
92,68,68,68,64,68,70,70,64,66
67,63,62,61,58,64,65,64,31,63
97,65,64,64,62,66,67,66,30,64
96,66,66,66,65,68,68,68,30,66
73,69,66,66,62,69,69,73,62,68
99,70,69,68,67,70,70,70,66,67
96,67,66,65,128,67,68,67,130,130
67,64,62,61,61,63,66,65,36,62
100,69,67,67,65,69,70,70,30,67
67,65,63,62,61,65,65,66,32,63
96,68,66,66,64,68,70,70,29,67
63,63,61,98,98,49,66,64,96,93
98,67,64,64,129,67,69,67,31,67
93,68,66,65,128,68,69,69,65,129
102,66,66,66,63,68,68,68,130,64
101,67,66,66,64,68,69,68,29,66
93,67,64,64,64,68,69,68,30,63
93,70,70,69,68,72,75,73,68,68
88,66,64,65,62,68,68,67,30,64
62,76,78,78,74,82,78,78,84,72
96,73,73,69,69,73,73,73,31,69
98,68,66,66,130,68,69,69,65,66
95,62,61,29,25,32,64,62,29,61
94,68,68,68,64,69,71,69,29,68
99,66,64,64,62,67,67,67,29,64
92,67,65,64,128,68,69,69,31,65
66,98,62,61,96,64,64,64,35,96
95,96,59,57,96,64,64,70,33,95
96,65,64,64,61,67,67,67,30,64
62,35,33,32,36,36,40,37,32,33
92,67,65,67,65,66,70,67,30,67
93,69,67,65,64,69,70,70,130,65
93,68,66,66,63,68,70,69,128,66
98,71,69,69,26,72,73,72,30,99
100,65,63,63,62,65,68,66,29,63
95,67,66,66,64,69,69,69,64,66
94,67,65,65,65,67,70,68,29,65
99,67,66,66,62,68,69,68,30,65
95,68,67,67,64,68,70,68,30,67
89,65,65,64,63,66,70,67,29,65
68,65,64,64,62,67,68,67,29,64
87,69,67,67,65,69,69,69,65,67
65,80,80,81,80,85,78,80,93,80
97,66,65,65,65,68,69,68,65,65
90,63,62,64,63,64,63,65,40,62
71,67,65,65,62,67,68,67,30,65
92,67,66,65,65,68,70,70,64,65
99,64,63,63,62,65,66,65,29,63
89,69,69,69,66,71,72,69,31,69
93,68,68,68,61,69,68,68,29,68
95,67,66,66,63,67,68,67,29,65
91,66,61,62,62,67,66,63,30,63
97,70,70,70,68,71,73,71,30,100
104,68,67,67,26,68,70,68,31,106
92,66,66,65,63,66,68,67,29,65
91,67,66,66,63,68,68,69,30,28
91,68,68,68,127,70,70,71,65,128
97,63,62,62,60,64,65,64,29,63
94,69,66,68,69,69,70,69,36,69
103,64,63,63,60,66,67,67,29,63
90,68,67,67,64,69,69,69,31,66
91,73,71,71,67,72,73,73,67,69
102,70,70,69,26,72,72,72,30,28
95,68,67,67,67,70,70,70,30,67
95,69,67,67,65,69,70,69,65,67
88,61,58,57,57,62,60,59,59,59
71,67,67,67,65,69,69,69,30,67
91,66,65,64,63,68,68,68,29,65
96,66,65,65,63,66,68,66,63,65
96,65,64,64,63,68,68,68,29,64
95,67,67,67,65,67,69,68,29,67
84,68,67,66,66,69,70,69,29,67
80,88,95,95,90,101,85,86,96,86
98,72,70,70,69,72,74,72,30,70
88,69,68,67,66,69,70,69,30,66
99,64,63,63,61,66,66,65,32,61
103,65,64,64,62,66,67,66,30,64
97,67,67,67,63,69,69,68,64,67
91,69,67,67,128,69,71,69,66,129
97,67,65,66,62,67,67,67,31,65
99,68,67,67,63,71,71,72,30,67
70,67,67,67,64,69,69,67,31,66
105,105,64,64,132,66,106,105,29,103
95,67,65,65,63,67,67,68,63,65
66,68,61,60,68,63,67,65,31,65
100,68,66,66,64,68,70,69,30,66
98,64,61,61,64,64,64,64,30,61
91,64,63,61,61,65,66,65,33,64
95,67,65,64,63,67,69,68,30,65
95,66,66,66,64,68,69,68,31,66
90,68,67,67,63,68,71,68,32,67
96,64,63,63,60,64,65,64,33,64
91,63,61,62,63,65,64,63,35,30
72,68,67,67,64,69,70,69,67,68
73,63,61,63,61,62,67,64,51,63
97,65,63,63,61,65,65,65,29,63
83,91,100,100,91,100,88,90,94,89
68,66,65,65,64,68,68,68,31,65
102,68,68,67,26,68,71,69,31,28
93,68,69,67,67,70,69,69,67,67
66,49,50,49,46,52,66,62,47,46
96,68,67,67,65,68,71,69,66,67
96,70,68,69,129,69,70,70,29,70
97,66,63,66,130,66,71,68,67,70
127,72,73,72,64,69,73,71,73,73
90,67,66,66,61,68,68,67,66,67
100,68,66,66,65,69,70,69,29,66
92,69,70,68,65,69,68,70,30,64
92,79,76,76,73,75,85,84,66,84
96,66,66,65,65,68,71,68,65,66
94,66,65,65,128,67,68,68,63,65
94,66,65,65,101,68,68,67,29,101
101,68,66,66,64,68,71,70,29,66
94,71,69,69,68,71,71,71,31,69
100,105,64,63,60,67,105,105,29,100
129,68,67,67,66,69,69,69,32,130
98,70,69,69,66,71,72,72,67,69
90,72,72,71,128,71,75,73,67,128
63,64,61,59,70,48,64,63,38,63
92,72,72,72,128,70,70,72,64,129
92,67,66,66,62,67,70,67,129,67
96,101,59,59,58,61,101,102,28,101
96,68,67,67,65,69,70,69,29,67
96,64,64,64,26,65,66,65,32,64
98,66,64,64,62,67,68,67,28,64
94,67,65,65,63,67,68,67,33,28
65,62,60,59,58,63,64,64,33,64
102,68,66,66,132,68,69,69,30,66
90,65,63,59,59,64,64,64,36,61
101,69,68,68,66,69,72,70,30,68
70,67,65,65,63,68,68,68,128,65
97,30,29,29,26,33,69,67,33,27
94,31,30,30,28,34,65,64,35,29
93,70,67,61,128,70,69,79,61,129
95,67,65,65,62,67,68,67,30,64
60,71,42,42,38,34,62,59,30,66
97,30,65,29,26,66,68,68,33,27
65,64,63,63,63,65,65,64,30,64
96,66,65,64,129,67,68,67,63,64
95,65,63,63,25,65,67,65,31,63
81,65,63,63,62,66,66,66,62,63
100,69,67,67,65,69,71,71,30,67
97,66,66,66,62,68,69,67,29,66
71,65,64,65,60,65,68,67,30,65
71,84,83,83,84,87,86,85,89,84
68,65,63,63,60,67,67,67,29,64
92,66,63,63,66,66,65,66,35,63
68,66,66,66,63,67,68,68,128,64
82,66,65,65,64,69,72,68,33,64
89,64,62,63,25,66,66,64,34,61
94,67,65,65,62,68,69,68,30,67
101,71,71,69,68,71,74,73,67,69
98,64,63,62,61,64,64,65,61,63
92,69,68,66,66,70,71,69,30,68
94,66,65,65,61,66,68,67,32,65
92,76,76,75,72,75,79,81,73,76
93,64,63,63,60,66,66,66,30,61
72,65,64,64,61,67,68,68,32,65
69,67,67,67,64,68,69,67,29,67
91,70,69,69,66,72,73,71,30,68
91,76,74,72,72,74,76,78,69,74
65,64,63,62,67,58,64,62,36,64
96,63,62,62,60,65,66,65,30,62
92,65,62,65,65,65,65,65,65,62
86,67,66,66,62,68,67,67,29,64
83,89,91,91,90,100,87,88,95,89
87,69,67,66,128,68,70,69,64,129
94,68,66,64,69,69,67,68,39,66
69,65,64,63,62,66,67,66,29,63
72,64,61,60,58,62,66,65,57,62
105,104,101,97,100,105,105,105,68,101
101,66,64,64,62,66,67,66,29,64
93,67,66,66,62,68,68,67,32,65
92,68,66,65,101,68,69,68,35,100
95,67,64,61,62,66,67,67,61,64
68,62,58,55,126,59,62,62,127,64
96,67,66,66,63,67,69,69,64,67
97,105,105,105,105,106,106,106,35,30
98,64,64,63,61,66,67,66,30,64
98,69,68,67,65,70,72,71,30,66
95,69,67,67,128,69,69,70,65,67
95,64,64,63,61,65,67,66,30,64
95,67,66,66,66,68,69,69,30,66
101,68,67,66,65,68,70,70,30,65
96,64,63,63,61,66,67,66,29,62
92,66,65,65,65,67,69,67,35,66
91,69,68,68,129,69,73,70,66,69
86,92,69,69,66,69,88,87,65,90
96,66,65,65,63,67,68,67,130,65
96,66,64,63,63,66,67,66,129,64
93,66,66,64,128,67,67,67,62,64
88,69,67,64,64,68,69,69,31,65
103,68,67,66,65,69,70,69,30,65
74,70,70,69,68,71,72,71,36,70
94,67,65,65,63,68,68,68,30,65
71,67,66,64,63,67,69,67,30,64
66,64,62,62,61,66,66,65,29,63
92,61,57,58,60,69,63,59,65,62
93,66,64,64,63,67,67,66,31,27
100,68,66,30,26,68,70,70,30,28
90,71,69,69,128,69,74,71,65,129
44,45,45,45,44,47,46,46,90,44
95,66,65,65,61,66,67,66,30,66
73,68,67,67,126,67,71,67,62,67
63,78,78,79,74,82,65,80,86,72
66,66,63,65,61,67,67,66,30,63
68,67,66,29,25,33,68,68,30,27
98,68,68,68,129,68,70,68,65,67
91,65,76,72,60,66,77,79,58,61
95,69,64,64,61,68,70,69,30,70
65,103,103,103,102,104,103,103,102,102
98,67,66,65,64,67,68,67,29,101
98,66,65,65,61,65,67,66,29,64
90,66,65,66,63,67,68,68,63,65
99,68,66,67,65,70,70,70,30,66
99,69,68,67,66,70,70,70,30,68
94,66,64,64,61,66,67,66,30,66
99,68,67,67,65,68,71,70,30,100
100,64,63,63,130,65,66,65,62,62
96,64,64,64,64,64,67,64,31,63
91,69,67,67,64,69,71,70,64,130
86,71,68,68,127,69,71,71,63,128
96,66,65,64,64,67,68,68,29,66
89,70,70,70,67,70,73,70,66,128
71,67,66,66,64,67,70,67,30,65
74,67,65,66,62,67,70,68,31,68
88,65,62,62,97,66,65,65,40,95
68,66,65,103,98,106,68,68,105,98
95,64,63,63,128,64,66,66,63,63
68,65,63,63,62,65,68,67,30,64
90,68,66,65,62,68,68,68,62,65
71,69,68,68,129,69,71,70,130,130
100,71,70,70,66,71,73,72,31,100
90,68,70,68,128,67,70,69,65,128
73,65,64,64,60,65,65,65,41,65
69,66,64,64,25,67,68,67,31,27
68,62,61,60,61,64,64,64,32,63
96,68,67,67,66,69,70,69,66,67
106,68,67,67,63,69,69,68,30,67
97,68,65,65,130,68,68,68,28,65
90,70,69,68,127,70,72,71,65,128
100,65,65,65,62,67,68,67,30,64
73,64,62,61,60,64,67,66,40,61
93,62,60,57,62,66,60,63,36,28
98,66,66,65,64,67,69,67,29,66
90,70,68,67,65,69,70,71,65,66
98,64,64,64,60,64,67,66,29,64
97,67,66,65,63,68,68,68,63,65
89,69,70,68,128,70,71,71,65,129
91,68,68,65,64,68,70,68,64,65
97,66,64,64,129,66,68,66,29,64
92,75,76,67,64,72,76,75,67,66
98,61,60,60,25,33,62,62,31,60
89,73,72,70,69,72,77,77,65,71
94,67,66,66,64,67,69,69,29,65
93,62,55,53,63,42,59,59,37,59
62,31,30,41,34,45,61,33,37,28
92,67,65,65,62,69,69,69,31,65
93,67,64,64,61,67,67,67,31,64
98,65,65,64,60,67,67,67,29,65
93,67,66,65,65,68,69,67,29,65
96,66,64,64,62,66,67,67,29,98
95,67,65,64,62,67,69,68,29,64
92,65,63,63,63,67,67,66,30,63
97,66,65,65,129,67,68,68,29,66
98,67,66,66,63,69,69,69,30,66
95,95,91,94,129,94,94,94,33,28
100,69,66,66,26,69,70,70,30,67
94,68,66,65,62,68,68,68,29,64
70,65,64,64,62,66,67,67,31,64
87,70,64,70,67,68,81,82,56,83
99,69,66,66,65,69,71,69,30,66
59,70,38,38,37,37,70,69,33,65
99,66,65,65,61,66,68,66,30,65
91,74,69,68,69,68,72,74,63,69
50,51,50,72,46,71,54,52,56,49
88,71,71,71,68,72,73,76,65,127
91,72,70,70,69,72,76,75,66,69
83,67,65,65,129,67,69,68,64,130
92,63,62,63,67,67,66,64,63,61
92,67,67,67,65,68,68,67,28,67
98,66,66,66,63,68,68,67,29,64
95,62,62,62,59,64,66,65,30,62
87,71,68,68,67,70,72,73,67,68
96,68,66,66,130,69,69,69,29,66
66,65,63,62,66,65,65,66,35,62
88,61,57,53,65,42,62,59,34,62
99,62,60,61,31,64,63,63,34,29
71,66,64,64,127,66,68,67,30,65
61,72,71,46,65,45,61,59,127,60
87,72,71,70,69,71,75,75,67,71
91,70,69,69,67,72,72,73,30,99
94,66,65,64,128,67,69,68,63,66
81,72,69,69,129,72,73,72,130,130
61,60,59,56,63,35,64,62,66,64
102,71,69,69,67,71,73,72,30,68
96,93,91,90,86,92,93,93,29,90
93,69,67,67,64,70,70,70,29,70
92,67,64,30,26,33,68,67,33,28
90,65,63,63,61,65,67,66,32,63
97,71,70,70,68,71,74,72,66,68
66,65,61,61,58,66,66,65,32,62
98,67,64,64,62,68,68,68,29,64
94,65,61,62,59,65,65,65,29,61
92,66,66,66,65,69,70,67,66,66
88,68,66,64,64,68,69,69,64,66
90,68,66,64,64,68,67,66,30,64
96,67,66,66,63,69,69,68,63,66
89,67,65,63,28,67,67,67,32,29
91,67,66,66,64,68,69,69,129,66
89,93,95,95,93,94,92,91,92,93
77,91,103,98,91,103,77,78,98,83
61,62,112,111,108,111,62,61,74,63
98,97,97,96,95,97,97,97,93,94
93,67,67,66,62,66,70,69,29,67
90,65,65,65,65,66,65,65,61,65
88,64,61,59,60,64,64,65,59,96
101,67,65,30,26,67,68,67,30,28
87,63,61,62,63,65,65,63,30,64
73,65,64,66,65,67,68,67,35,66
90,68,65,64,64,69,70,68,64,64
90,74,78,74,128,72,77,77,63,129
97,69,69,68,67,70,70,70,29,69
96,66,65,65,62,67,69,67,62,65
88,66,70,67,65,66,71,68,63,65
90,68,67,66,128,68,68,68,64,128
97,66,65,64,129,67,68,67,29,64
90,69,62,69,61,66,68,65,69,62
90,65,62,30,26,34,65,65,34,62
88,64,30,30,29,34,64,63,35,61
96,65,64,64,64,66,69,70,30,65
98,66,65,65,129,67,68,68,29,65
71,31,30,30,29,34,68,67,39,31
94,68,67,67,63,70,70,68,67,69
96,68,66,66,65,68,68,68,64,65
89,68,67,67,65,69,71,70,29,65
99,61,59,30,26,33,64,61,35,61
95,64,62,61,25,66,66,64,30,62
56,74,74,75,70,77,75,76,79,67
104,69,68,68,65,71,71,71,32,28
92,48,48,47,44,51,67,50,33,34
99,71,70,70,130,71,73,71,29,70
94,63,62,62,58,65,65,65,29,62
91,64,60,59,67,64,64,62,34,62
100,67,66,66,63,69,69,68,30,101
98,66,65,65,129,66,67,66,63,65
92,67,66,66,64,69,69,69,64,66
71,67,64,64,62,67,68,67,30,64
88,65,64,65,60,67,69,66,30,65
75,68,66,66,64,69,70,69,31,66
89,68,68,66,64,69,69,68,33,65
96,68,68,68,64,70,71,70,30,66
69,67,64,66,62,67,69,67,30,63
88,67,64,64,127,67,67,67,63,64
98,68,66,68,63,70,71,69,32,66
88,72,69,69,67,72,73,73,67,69
96,67,67,65,63,68,70,68,29,67
93,69,69,68,127,70,71,69,29,128
95,65,63,64,61,66,66,66,63,63
93,68,68,68,68,65,66,68,35,68
70,64,63,61,59,65,66,64,36,65
101,68,67,67,65,70,70,70,31,67
101,135,135,135,132,73,74,74,30,133
94,33,64,31,30,35,68,66,36,30
87,67,65,66,63,68,68,68,63,64
89,70,70,68,67,70,72,71,32,98
95,67,65,64,26,68,68,68,30,64
77,74,73,73,68,71,74,73,73,73
69,68,43,43,43,37,58,69,31,67
98,67,66,66,63,68,70,68,30,64
89,67,66,65,64,67,69,68,64,65
95,66,71,68,62,69,71,69,63,63
61,99,100,99,98,99,99,99,95,95
94,84,77,77,62,71,86,84,66,128
90,67,65,63,68,68,66,68,36,65
95,65,64,64,62,65,67,67,29,64
29,31,30,30,30,32,32,31,35,29
95,66,64,64,63,67,67,66,30,64
91,32,30,31,33,41,61,60,37,31
94,66,65,65,61,68,68,67,65,65
94,67,65,65,63,67,68,68,65,65
97,72,72,72,70,72,75,72,30,72
92,70,70,69,68,66,71,74,69,70
63,34,33,33,30,46,33,32,38,29
96,62,60,60,60,63,65,63,32,62
98,63,54,55,56,55,63,62,35,62
100,69,68,68,66,70,71,70,30,67
95,65,64,64,59,66,67,66,29,64
88,71,69,68,65,71,71,71,67,69
96,68,68,68,128,68,71,71,29,67
69,65,64,64,61,66,68,67,30,64
96,66,65,65,62,65,67,67,29,65
98,67,65,65,130,67,69,67,29,66
89,69,68,68,128,70,71,71,64,129
91,67,65,65,65,67,68,67,34,66
89,69,68,68,64,70,71,71,31,28
92,67,65,31,28,35,65,63,38,63
91,72,70,68,68,70,72,72,66,68
90,67,67,67,64,68,70,70,64,65
92,68,68,66,65,69,70,70,29,66
70,65,64,64,62,66,68,67,61,63
70,68,66,66,63,68,69,69,30,66
100,66,65,65,63,66,69,68,29,66
101,63,62,62,60,65,65,63,29,62
88,73,71,68,68,71,73,74,64,71
67,64,63,30,26,33,66,66,31,28
88,69,67,67,129,69,73,72,29,67
88,98,101,101,98,101,99,94,96,93
95,66,66,66,63,67,67,67,31,64
95,65,63,63,62,67,67,67,29,62
73,63,61,61,127,64,64,62,32,61
94,67,66,67,64,68,69,68,29,67
86,70,70,68,66,70,74,73,66,70
96,51,47,55,51,52,50,52,57,55
86,74,73,73,69,72,81,75,65,75
97,66,65,65,129,66,68,67,29,131
90,69,70,69,65,69,71,70,65,67
84,64,64,64,64,64,64,64,64,64
75,37,48,44,42,51,39,39,43,34
70,65,61,61,27,34,67,65,31,65
93,101,47,47,100,47,47,101,99,99
102,64,64,64,61,66,66,66,29,62
101,64,62,62,60,66,66,65,32,61
104,106,69,67,26,69,71,70,31,105
87,66,64,63,62,66,68,67,30,95
98,69,68,68,130,69,70,70,66,68
87,73,72,70,69,72,77,78,66,75
99,65,64,64,63,66,67,67,28,65
95,67,66,66,64,67,69,69,64,65
91,80,77,74,74,74,87,82,69,81
98,68,67,67,64,68,68,68,30,66
92,63,62,62,58,67,64,63,64,63
88,68,68,68,68,68,71,71,65,68
61,77,78,78,73,84,67,69,80,70
58,69,75,74,71,111,62,62,76,66
97,71,70,70,68,71,74,74,68,71
94,68,65,65,129,68,69,69,62,65
97,66,66,64,62,67,67,66,30,64
67,66,63,66,26,67,67,66,29,67
97,69,68,66,66,68,70,69,29,67
71,66,65,65,62,68,68,67,30,65
92,68,68,66,66,69,69,70,64,65
97,67,66,66,129,68,69,69,28,66
100,72,72,72,131,72,74,75,30,132
101,66,65,65,25,68,68,68,30,27
96,66,66,66,63,66,68,67,29,64
89,78,75,74,71,74,84,80,67,80
31,32,68,68,32,34,34,33,36,32
70,68,67,67,65,69,70,69,129,66
98,66,65,65,61,67,68,67,130,64
93,67,67,67,63,68,70,70,30,67
99,67,66,66,130,67,69,68,64,65
100,65,64,63,62,66,66,66,30,64
95,67,65,65,63,67,67,67,63,65
96,68,66,66,63,68,68,68,29,65
93,68,67,67,65,68,69,69,30,67
97,69,67,66,129,69,70,70,64,66
96,68,66,66,128,69,70,69,64,66
98,68,67,66,130,68,68,68,28,68
96,67,66,64,129,67,67,67,30,66
56,63,62,69,64,74,64,64,77,60
93,63,62,60,60,64,65,64,31,62
91,68,67,31,31,42,65,62,36,65
87,67,67,66,65,69,69,68,65,67
98,68,67,68,65,69,70,69,30,67
70,66,66,64,64,67,67,66,33,65
98,67,66,66,65,67,70,67,28,65
102,66,65,65,62,68,68,67,30,64
96,65,65,64,61,67,68,68,29,63
97,63,60,60,60,63,63,63,31,63
96,67,66,66,62,68,68,68,29,66
91,67,74,74,71,75,67,66,47,65
96,67,67,67,128,68,69,68,29,67
90,66,65,66,61,67,68,68,30,64
75,68,68,67,66,70,70,70,66,68
102,102,65,64,61,67,67,67,30,102
72,67,66,65,62,67,69,67,30,66
68,65,64,65,61,65,67,66,33,65
63,76,75,72,76,77,76,77,38,73
94,65,63,63,59,66,66,65,29,64
93,68,67,67,128,68,70,69,64,129
94,69,68,67,128,70,70,70,66,129
98,65,64,63,61,66,68,67,29,64
94,73,73,73,70,75,88,88,31,100
69,66,63,63,63,67,67,66,38,65
78,69,69,67,67,70,72,70,31,68
103,103,104,104,132,104,104,104,29,103
93,67,65,65,64,67,69,68,31,64
66,76,77,77,74,81,78,77,80,72
99,66,66,66,130,67,68,68,63,65
93,68,67,67,67,71,71,70,30,68
95,70,67,70,67,71,71,71,67,68
94,68,67,67,63,69,69,69,29,68
63,62,72,71,68,63,63,62,31,67
30,32,32,33,34,48,33,32,39,32
70,63,60,60,28,33,66,65,35,60
97,63,61,61,59,65,65,65,28,98
98,64,63,63,129,65,67,65,63,63
60,40,41,40,38,45,34,33,36,36
95,65,64,28,25,32,66,66,30,26
90,70,70,69,128,70,72,71,64,70
90,69,68,68,128,69,71,70,66,67
61,78,77,76,74,91,63,62,79,71
91,70,69,68,128,70,75,73,67,129
64,30,30,30,26,33,64,64,32,28
99,66,63,63,130,66,66,66,63,64
88,66,63,64,127,66,68,66,30,65
98,68,67,66,65,70,70,70,30,67
69,67,65,65,64,67,69,67,31,65
97,63,62,62,58,63,66,63,32,62
89,67,67,67,63,67,68,67,31,65
90,72,71,71,128,70,74,72,66,129
94,66,65,65,62,68,68,67,29,64
62,34,44,43,38,39,34,35,38,31
92,67,64,64,62,67,67,67,31,64
91,68,67,67,63,69,70,69,30,67
101,70,69,69,131,71,72,71,67,68
89,96,49,49,95,51,62,60,94,95
97,68,67,67,129,69,70,69,29,67
96,68,66,65,64,68,68,68,130,66
94,68,66,66,128,68,70,69,63,67
85,66,64,64,62,66,67,66,63,64
100,67,67,66,63,68,69,68,32,28
99,66,65,65,61,67,69,67,29,65
90,67,60,72,61,70,67,66,39,61
106,67,67,67,64,70,70,69,30,66
100,68,66,66,62,68,69,68,30,65
91,69,62,65,65,55,71,66,43,66
97,66,65,65,128,67,69,68,64,64
97,67,66,66,63,68,68,68,30,66
29,65,65,65,62,65,67,65,36,101
58,88,76,79,91,98,88,89,94,92
92,63,61,59,64,56,62,64,31,61
99,68,67,67,26,69,69,69,30,66
88,68,67,67,63,68,68,68,29,66
62,56,48,47,45,47,58,60,39,60
93,65,65,65,60,67,67,66,64,64
96,69,67,67,27,69,72,69,31,29
77,70,68,68,65,72,72,70,68,70
92,66,65,65,62,67,69,68,30,65
97,66,65,65,62,69,69,66,65,65
78,75,73,74,74,77,77,80,127,72
95,66,64,64,128,66,69,68,63,129
92,68,66,66,65,68,68,68,30,65
90,67,66,67,64,67,67,67,63,67
94,66,66,66,62,67,70,67,31,66
96,71,70,70,66,73,74,71,30,104
101,67,67,66,65,68,69,68,30,99
74,70,68,67,65,71,71,71,30,67
97,65,64,64,61,66,67,66,32,64
94,59,50,41,31,45,65,59,34,59
73,76,98,93,84,93,75,74,89,74
101,30,29,29,25,33,33,32,29,27
87,68,66,66,128,68,72,71,64,129
100,71,70,68,68,71,73,71,30,70
67,31,48,30,26,35,66,65,38,28
97,65,64,64,62,66,67,66,63,64
98,66,65,65,61,65,68,66,29,65
88,58,57,58,57,63,68,65,59,57
97,67,66,66,63,69,70,69,29,66
101,64,62,60,59,65,65,65,30,61
98,71,69,69,69,72,73,72,30,70
99,65,63,64,60,67,66,66,31,62
98,67,65,66,129,66,68,67,29,65
89,69,65,65,65,69,69,69,30,66
96,97,96,96,60,52,96,92,44,94
99,66,64,64,61,66,68,66,63,63
88,78,73,73,70,73,78,79,69,74
89,69,66,66,63,69,70,70,30,65
100,65,64,64,27,66,67,66,35,64
103,104,67,66,63,69,69,104,30,103
95,67,65,65,62,67,69,68,129,65
88,68,66,66,64,68,69,69,64,66
73,70,68,69,66,70,71,70,31,70
91,69,67,67,67,67,72,71,29,67
89,66,63,63,59,67,67,67,33,63
97,67,65,65,129,67,71,68,30,67
74,96,96,96,92,96,87,86,92,93
91,84,83,81,78,81,86,87,70,83
102,68,67,67,66,70,70,70,29,66
82,70,69,68,65,70,71,71,64,70
98,65,63,63,61,65,68,66,29,63
30,101,63,62,100,66,66,66,38,100
92,71,69,69,129,70,75,72,66,130
74,71,68,68,64,71,73,71,28,71
95,69,68,68,65,71,72,72,29,68
96,65,64,64,62,66,69,66,31,65
62,32,30,31,29,35,62,33,38,31
89,70,69,67,66,70,70,71,29,67
68,65,64,64,130,66,67,66,62,64
100,65,64,64,62,66,67,66,29,62
67,63,62,63,58,62,66,63,40,65
90,67,64,65,61,66,68,67,30,66
98,66,65,65,61,67,67,67,29,63
97,67,67,67,63,67,71,68,30,67
95,68,67,65,65,68,70,69,65,67
89,69,68,68,65,70,70,70,30,67
99,69,67,66,130,69,70,69,28,131
58,65,45,67,67,36,56,58,30,58
29,42,44,43,41,44,33,34,38,35
90,64,64,63,60,65,65,64,32,61
96,67,67,67,62,68,68,68,29,67
82,61,61,61,61,61,65,64,62,65
104,67,65,30,26,67,70,67,32,28
29,30,29,29,26,93,32,32,32,27
70,66,64,66,63,68,68,67,30,64
89,65,63,63,61,66,68,68,32,63
96,68,67,67,129,69,70,69,65,129
89,95,49,49,45,95,93,94,94,94
96,66,64,65,62,66,68,67,30,99
98,63,62,62,60,64,65,65,29,62
92,66,66,65,61,67,68,67,61,66
91,64,62,29,26,65,65,65,33,62
92,89,87,87,92,91,91,92,30,87
94,64,64,30,27,65,68,66,32,29
91,63,60,61,64,65,64,64,35,63
91,65,62,29,26,65,65,65,33,27
65,61,60,60,25,32,63,61,29,60
98,68,66,66,64,68,69,69,30,66
93,66,64,64,60,67,66,66,31,64
96,68,68,67,66,69,70,70,65,68
92,83,75,73,73,72,89,85,26,74
75,68,68,68,66,69,72,69,31,68
92,76,73,73,69,73,87,85,69,95
93,67,67,65,64,67,69,67,29,67
98,67,66,66,64,67,68,68,29,66
95,66,66,66,63,66,68,66,30,65
93,68,68,68,65,69,71,69,65,66
101,68,66,66,63,68,69,68,30,65
90,69,68,67,129,69,70,69,63,129
94,65,64,64,60,65,67,66,29,63
94,66,66,66,63,66,69,66,128,66
67,30,63,30,26,33,66,66,33,28
91,65,65,65,61,67,69,66,30,65
73,73,73,73,74,73,78,73,75,76
66,66,29,30,26,66,66,66,31,28
94,67,65,65,64,68,71,68,31,65
87,68,66,65,64,68,69,68,65,66
91,66,65,65,63,67,69,66,34,65
86,68,67,67,63,70,70,70,66,67
86,71,70,68,67,69,75,73,63,73
88,67,64,64,61,66,67,67,63,63
97,47,47,47,44,49,49,49,44,45
93,69,66,66,63,69,70,70,30,66
34,129,129,129,127,97,97,97,44,128
97,68,67,67,64,68,70,69,29,67
97,70,69,69,65,71,72,72,30,67
91,66,64,62,64,65,66,66,34,64
97,66,65,65,128,67,69,67,29,66
96,67,65,65,62,67,69,67,32,65
88,69,68,67,66,68,72,71,64,68
92,65,64,64,63,68,69,66,65,63
62,63,58,56,66,42,63,61,31,60
98,65,65,64,129,67,68,67,29,64
99,65,64,65,61,66,68,66,28,63
98,64,61,59,35,43,65,62,39,29
86,72,70,69,68,72,73,72,68,70
90,40,31,31,27,36,40,35,34,37
98,65,63,63,62,66,66,65,29,62
72,68,67,67,63,70,71,70,30,68
65,64,60,57,49,42,64,64,31,62
96,66,66,65,128,68,69,68,64,66
86,68,67,67,129,68,71,69,65,130
85,69,67,67,67,69,69,69,33,67
97,67,67,67,129,69,69,69,65,67
97,66,65,65,61,66,68,66,29,63
98,71,68,68,129,71,73,73,30,68
87,72,71,71,69,71,75,75,29,70
102,68,67,67,65,69,70,70,30,67
92,67,66,65,65,67,68,68,31,65
90,66,64,64,61,66,68,66,31,64
97,30,29,29,25,32,66,31,32,27
63,98,99,98,98,46,99,98,38,97
92,67,63,67,67,68,68,68,41,65
93,72,71,71,132,72,74,74,30,99
91,64,62,60,60,65,66,65,60,60
102,71,69,69,67,72,72,72,30,69
100,65,65,63,25,66,66,66,30,27
74,81,81,81,81,87,84,83,85,79
90,66,66,65,62,67,69,68,64,68
95,64,62,63,59,66,65,65,29,61
97,70,68,67,129,68,70,70,64,67
94,68,67,67,128,68,71,70,64,129
65,62,59,59,56,59,64,62,128,61
88,66,66,64,62,67,67,67,30,64
99,65,64,64,60,66,67,65,29,64
91,65,64,64,61,67,67,67,32,64
72,63,61,61,57,64,64,63,31,60
98,31,60,58,30,62,62,63,37,29
101,69,66,66,64,69,69,69,30,66
90,62,61,62,62,62,66,62,31,62
72,66,63,62,62,66,67,66,62,64
95,69,67,65,129,69,70,70,29,130
95,68,66,65,65,68,68,68,31,66
65,31,30,30,27,34,64,64,34,29
98,65,64,65,62,66,68,66,29,63
90,65,63,65,65,67,67,67,30,65
93,71,70,70,128,71,73,73,67,129
92,29,28,31,31,43,63,31,37,29
91,70,70,68,67,69,71,70,31,69
86,68,68,68,65,69,70,70,62,129
97,30,29,29,27,33,33,32,33,28
100,64,63,62,60,65,66,66,29,62
58,72,75,75,71,80,66,77,85,68
92,99,62,60,131,62,101,100,28,98
93,67,65,65,62,67,68,68,128,65
95,68,68,67,64,70,70,69,34,101
96,70,68,66,66,69,71,70,63,68
95,65,64,64,61,65,69,67,30,64
86,66,66,63,130,67,74,71,63,130
93,66,63,63,59,66,66,67,128,63
84,69,68,66,65,68,70,69,63,67
103,68,66,65,65,69,69,68,32,28
92,68,66,65,63,69,69,69,32,65
94,65,63,63,62,66,68,67,31,64
78,71,68,68,126,71,72,71,30,127
99,95,95,95,90,95,98,96,41,96
70,66,65,64,63,67,68,68,35,64
59,67,34,34,34,35,44,40,31,65
90,80,78,77,74,74,85,84,65,80
94,66,65,64,63,67,68,68,63,64
70,67,66,65,63,69,68,68,65,65
87,69,68,67,64,70,70,69,30,66
86,65,64,63,63,66,66,65,30,63
91,44,45,44,41,46,45,44,41,41
69,33,32,31,28,36,68,34,39,32
90,67,66,65,126,67,69,67,63,65
90,64,61,61,64,65,65,64,34,63
99,102,64,64,61,102,102,102,30,101
101,67,65,65,64,68,70,69,30,65
84,86,46,94,43,99,88,87,95,87
97,65,63,63,26,65,66,65,32,63
73,67,66,66,63,68,69,68,30,66
70,66,64,64,62,67,69,68,33,66
95,72,75,72,67,72,75,73,69,68
90,70,67,67,64,69,70,70,31,66
74,67,64,61,60,68,65,64,60,64
70,67,66,64,62,68,69,69,30,66
95,70,67,66,66,69,70,70,29,68
93,69,69,69,66,69,70,70,29,69
94,65,63,63,60,65,68,66,31,65
72,67,66,66,62,67,70,68,30,64
90,65,62,62,60,65,65,65,33,62
91,64,63,63,60,65,69,66,31,63
92,66,66,66,66,68,68,68,30,66
91,67,66,64,63,67,69,67,63,64
100,69,68,67,65,70,72,72,31,67
89,63,62,60,62,64,63,63,36,63
103,70,68,68,67,71,71,70,30,68
98,67,64,64,63,66,68,67,33,66
89,76,75,70,70,73,78,76,68,70
69,65,63,62,62,66,66,66,30,63
92,64,62,64,63,66,66,65,61,64
95,66,65,65,61,67,67,67,29,65
43,101,101,101,98,102,110,110,113,99
90,66,64,64,61,67,67,67,31,64
96,66,64,64,60,66,67,67,31,64
91,70,68,67,67,69,70,71,66,68
99,66,65,64,63,66,66,67,63,65
89,69,70,69,62,70,75,73,34,69
90,70,69,70,68,70,73,74,29,69
86,67,66,66,63,67,69,68,30,65
97,66,65,65,129,67,68,68,29,65
95,64,64,64,61,66,68,66,28,63
101,71,70,70,67,70,73,72,65,70
72,53,46,42,42,46,72,71,36,67
101,69,66,66,63,69,69,69,30,66
93,64,60,58,65,63,63,65,36,66
94,67,67,66,65,68,69,68,30,67
100,101,65,65,63,68,69,69,29,100
90,68,68,68,126,68,73,70,64,128
89,72,71,70,69,72,74,74,67,70
71,68,65,65,62,68,68,68,30,68
98,66,64,64,64,66,67,66,34,64
96,69,68,67,129,69,70,70,67,130
64,32,29,36,35,41,33,32,37,30
95,66,65,65,64,67,68,68,64,66
67,64,61,60,25,64,66,66,29,63
98,70,69,69,66,69,73,70,30,66
99,67,66,65,65,67,68,68,29,65
91,65,64,64,61,66,69,66,28,63
87,68,68,68,65,69,71,71,30,66
61,69,45,40,40,40,58,57,38,62
91,73,72,70,69,73,74,75,65,128
67,66,65,65,61,66,66,66,29,65
67,50,49,49,97,52,64,51,64,46
87,73,72,72,68,72,76,75,65,72
96,67,67,67,63,68,70,69,28,67
68,65,62,62,62,62,67,63,35,63
96,66,65,65,63,67,69,68,29,64
98,70,70,68,131,70,73,71,65,70
94,105,69,68,26,71,106,105,32,105
93,31,30,30,68,47,64,62,38,28
55,57,55,56,60,60,59,58,63,62
66,70,53,51,73,51,66,66,127,68
61,62,60,60,60,65,63,62,35,61
97,65,63,62,62,66,66,65,29,63
97,71,68,68,66,70,71,71,32,68
94,67,66,66,129,68,70,68,63,130
95,66,65,65,62,67,67,67,29,65
96,67,67,67,63,68,70,70,30,67
95,67,67,66,63,70,70,70,30,65
95,31,29,30,30,33,33,32,35,28
98,66,64,64,129,67,68,68,28,64
40,69,61,85,82,90,65,64,103,67
105,68,66,66,63,68,68,68,30,66
87,68,69,67,66,69,70,70,65,68
95,71,71,69,69,70,72,72,64,129
95,65,62,63,62,64,67,64,33,64
40,71,52,52,47,62,62,61,43,45
99,70,67,67,131,70,71,70,30,68
94,38,37,38,34,34,34,33,34,34
67,63,60,58,58,46,65,65,37,62
97,67,66,66,64,67,68,68,63,64
92,70,69,69,67,70,71,70,67,69
59,117,140,140,112,120,119,118,116,114
95,69,69,69,66,70,70,71,66,129
101,65,63,65,61,66,66,66,29,61
94,67,65,65,63,68,69,69,129,65
62,37,31,37,27,34,34,40,127,29
92,68,67,67,127,68,68,68,64,67
94,66,64,63,62,66,67,66,30,64
97,72,68,68,68,72,72,73,30,69
99,66,63,63,130,66,66,66,62,63
96,69,68,67,130,69,71,70,29,68
63,45,46,45,41,49,63,61,41,37
69,65,64,64,60,66,67,65,29,64
98,66,64,65,128,67,67,66,60,66
73,70,65,65,64,68,70,70,35,70
68,69,67,29,26,69,68,68,32,69
100,67,66,66,62,68,68,68,30,64
97,68,66,65,62,68,68,68,29,66
94,64,62,63,64,66,67,65,63,62
93,69,66,66,65,69,69,69,30,66
99,68,67,66,64,69,70,69,29,66
99,29,28,28,25,32,32,31,32,26
98,68,66,66,64,68,69,69,30,65
96,79,76,73,73,70,79,79,70,76
105,67,67,66,65,69,69,69,66,66
91,68,67,68,68,68,68,69,66,66
91,67,66,66,65,67,70,67,30,66
98,68,66,67,64,68,71,69,29,67
93,69,70,68,128,68,71,70,63,129
91,67,65,65,127,67,69,68,63,65
99,62,61,61,59,64,64,64,28,61
73,69,67,67,65,69,70,70,31,67
91,65,65,64,62,66,68,67,29,65
94,68,67,67,63,67,70,69,63,129
98,71,71,70,132,71,74,74,67,70
95,66,65,65,62,67,68,67,30,65
101,68,67,67,66,71,72,70,30,68
89,70,70,67,66,69,70,70,66,67
91,68,67,67,64,69,70,69,30,67
94,67,66,65,62,68,69,67,129,66
98,66,64,63,61,66,67,66,31,64
90,74,74,73,70,74,85,85,67,77
92,70,67,67,65,69,70,70,31,67
86,66,65,65,128,67,68,68,65,65
94,77,74,74,72,77,77,78,72,74
93,69,67,65,68,65,69,69,40,67
90,68,68,68,128,68,69,69,64,129
93,63,63,62,62,65,67,65,31,63
103,67,66,66,63,68,70,69,30,65
94,66,65,66,62,68,68,68,32,63
88,65,62,64,60,64,65,65,65,65
69,57,49,49,49,49,57,58,38,69
96,68,68,68,66,68,69,69,30,68
100,66,65,65,63,68,68,68,30,102
91,61,63,33,26,33,63,61,39,61
69,62,61,61,57,64,65,65,33,62
94,32,31,30,30,37,34,33,43,30
88,72,70,70,69,70,73,72,68,70
92,63,61,59,62,66,62,62,38,60
68,31,30,30,101,34,34,33,36,32
31,34,82,81,38,50,35,34,43,37
98,68,67,67,64,68,70,69,30,66
69,66,65,65,61,68,68,68,62,65
75,67,65,64,127,68,68,68,63,65
91,70,69,70,67,70,77,72,30,100
96,70,69,67,131,71,71,71,66,67
64,33,32,34,33,45,65,64,37,32
91,66,64,64,60,65,66,66,34,64
92,61,53,67,64,39,58,58,30,59
86,69,69,67,65,70,72,69,30,68
95,71,69,69,67,70,74,71,66,69
67,30,28,29,25,32,32,31,34,28
96,66,66,66,65,68,69,68,29,66
94,67,65,65,64,67,68,67,28,65
77,66,66,62,61,61,66,62,36,67
96,67,64,64,62,67,69,67,29,64
93,78,77,77,75,77,85,85,69,85
95,68,66,66,64,68,69,69,29,66
92,67,67,66,128,69,69,69,65,129
95,67,66,65,64,67,68,67,62,65
94,66,63,63,61,64,66,66,60,62
97,71,71,69,67,71,73,72,67,69
97,72,71,71,132,72,74,74,69,69
96,65,64,64,62,66,66,66,29,64
96,67,66,66,128,67,69,68,29,67
95,57,40,39,26,34,57,56,64,56
95,71,72,71,68,72,76,76,30,72
100,70,69,69,66,71,73,73,30,69
95,68,68,66,129,68,71,69,64,67
99,70,70,68,67,71,72,71,30,67
103,67,65,66,63,68,68,68,35,28
97,67,66,66,25,67,69,67,33,27
95,67,66,66,66,69,71,68,29,66
94,65,64,61,60,70,65,67,62,62
90,71,71,69,128,69,74,72,64,129
60,76,76,76,72,79,79,80,71,68
95,77,77,77,74,77,77,77,30,77
91,68,69,67,65,69,70,70,65,67
103,65,63,63,62,65,66,65,28,62
71,68,68,67,66,68,70,70,128,67
97,66,64,64,61,66,68,67,29,64
64,30,29,29,25,32,32,31,35,27
87,98,98,98,97,98,98,97,35,98
95,83,81,81,81,78,86,84,67,84
91,65,63,64,61,67,66,66,31,63
29,89,88,88,88,95,89,90,92,89
95,67,66,66,63,67,70,68,30,66
95,67,66,66,62,69,70,68,29,66
91,66,65,65,62,68,69,68,29,65
90,76,73,73,71,72,79,78,66,76
103,69,67,66,65,69,69,69,30,66
98,66,64,64,129,67,68,67,29,65
97,67,64,64,62,67,67,67,30,64
98,66,65,64,63,67,68,67,29,65
96,84,77,73,25,73,84,84,30,27
79,66,63,63,61,64,67,67,59,129
98,64,63,63,60,65,67,66,29,63
98,64,62,62,60,64,66,65,31,62
89,70,70,69,68,70,73,71,65,69
99,68,66,65,63,68,69,69,30,66
98,66,65,65,129,66,69,68,62,130
74,69,68,68,65,68,71,69,30,68
93,62,59,59,65,63,63,62,31,63
85,88,84,89,93,105,88,87,100,90
90,64,61,30,27,64,64,64,36,63
97,78,72,72,131,73,78,78,68,132
98,67,65,65,62,68,68,68,28,65
89,67,65,65,63,67,67,67,31,65
92,62,59,59,56,62,63,62,25,59
96,67,67,65,128,67,68,68,64,130
66,64,62,31,27,35,66,63,34,63
98,68,66,68,130,68,72,70,28,67
98,66,64,64,61,66,67,67,30,64
89,68,65,65,63,68,69,68,31,65
97,65,64,63,62,63,67,64,32,64
98,73,73,73,68,73,76,74,30,73
92,68,68,67,65,70,71,71,33,67
91,68,68,65,64,69,69,68,30,68
91,96,77,77,99,78,91,92,30,94
89,73,73,69,68,71,73,73,63,70
94,68,67,67,65,68,70,69,64,67
90,65,58,59,66,70,62,65,42,61
88,68,64,65,61,68,70,67,34,70
78,67,66,67,129,66,67,68,62,67
99,71,69,68,67,71,72,71,30,69
68,65,63,131,129,65,66,66,130,130
92,68,65,65,63,68,68,67,32,65
66,66,62,30,28,34,66,66,36,28
65,83,81,84,84,85,83,82,90,83
97,70,69,68,129,69,70,70,65,68
94,67,66,66,62,68,70,68,30,64
96,65,63,63,62,66,68,67,29,63
99,63,61,60,66,65,65,64,37,30
96,65,61,61,61,65,65,66,32,62
94,65,63,63,61,65,67,66,28,63
96,66,64,64,62,66,68,67,30,64
99,70,69,69,65,71,72,70,30,68
103,68,68,67,66,69,69,69,30,68
60,75,75,77,75,82,76,77,84,73
101,71,70,70,66,70,73,72,30,68
97,67,65,65,62,67,68,68,29,102
64,38,33,32,33,44,64,62,39,69
72,69,67,66,126,70,69,71,36,66
84,71,69,69,65,69,75,76,65,69
67,66,64,62,26,66,67,66,30,64
62,67,66,68,67,67,66,68,70,67
98,66,65,66,130,67,70,67,31,63
88,67,66,65,63,67,69,69,64,66
95,67,66,65,64,68,70,68,130,66
29,94,94,94,93,94,95,95,39,35
67,65,64,64,63,66,68,68,31,65
76,70,68,68,129,71,72,72,67,68
91,66,65,65,64,67,67,68,64,64
97,71,68,68,66,71,71,71,66,68
94,68,66,66,64,68,70,68,29,66
94,66,66,65,64,68,69,68,30,66
90,64,62,63,62,66,66,65,31,62
96,31,59,32,32,47,33,32,37,31
68,67,64,64,62,67,67,67,29,64
60,71,42,41,40,41,61,58,34,68
93,65,64,63,62,65,67,65,63,64
100,71,68,68,67,70,72,72,30,69
100,65,64,64,61,67,68,68,29,64
96,66,65,64,63,67,68,67,129,65
90,70,68,68,69,71,71,71,67,67
96,66,65,65,64,67,68,67,64,65
59,70,72,77,74,75,62,61,81,68
84,70,70,70,131,70,73,72,66,132
96,28,27,27,27,31,66,66,33,27
67,65,62,62,60,64,66,66,60,62
68,64,63,63,61,64,64,64,28,63
95,65,64,64,61,67,67,67,30,63
94,66,65,63,62,67,68,67,30,64
94,68,68,68,62,66,70,68,38,68
64,77,40,40,36,40,48,47,126,74
91,69,67,66,65,70,71,70,30,67
98,68,68,68,129,69,70,69,67,68
65,83,83,82,79,87,84,83,95,77
85,48,48,47,44,101,61,61,96,93
94,69,70,70,70,70,75,70,70,70
72,69,68,72,69,70,70,70,69,70
101,70,68,68,65,70,72,71,29,67
64,35,34,35,32,43,37,36,38,33
95,66,64,64,62,67,68,67,29,64
95,67,66,66,63,67,68,68,29,64
97,63,60,61,28,36,63,62,34,61
101,63,62,62,58,64,65,63,32,60
99,64,62,62,62,65,66,66,29,62
92,67,66,66,62,67,70,68,62,65
94,70,67,67,63,68,70,70,31,68
71,68,60,62,127,62,65,64,42,67
90,64,57,60,58,66,63,60,60,62
97,65,64,64,60,66,67,67,31,65
94,66,63,65,66,66,67,66,70,67
61,36,32,32,28,35,37,38,32,34
90,71,71,69,129,71,71,71,66,130
90,70,70,69,68,71,72,71,67,70
98,63,63,63,60,66,66,65,28,63
93,64,64,64,61,66,66,65,33,63
88,67,64,64,62,68,69,67,29,64
91,61,57,69,64,41,60,59,35,58
93,68,65,65,62,68,70,68,30,67
89,67,70,67,63,67,70,69,64,64
73,69,67,66,66,69,69,69,31,67
74,67,62,64,57,67,67,69,36,70
86,72,71,70,67,70,73,73,66,70
98,66,65,64,64,67,70,67,29,66
64,67,62,64,64,67,67,65,36,67
64,30,29,29,26,33,64,63,34,28
92,66,64,63,62,66,67,67,30,62
91,70,69,69,68,70,72,72,31,68
86,76,72,71,70,71,80,80,65,80
88,74,71,71,71,71,78,78,67,74
97,68,65,65,129,68,68,68,29,66
97,65,63,63,60,66,67,66,29,65
88,64,61,61,58,65,65,64,31,62
96,69,68,68,129,68,71,70,65,130
99,69,68,67,130,70,72,71,29,99
88,69,68,68,128,70,70,70,66,67
92,66,63,64,61,67,67,67,29,63
97,67,65,66,62,68,68,68,29,67
76,67,67,66,66,69,69,69,66,67
95,67,66,66,65,68,70,69,31,66
90,69,69,69,66,69,72,71,64,128
62,69,73,73,70,52,64,62,30,64
83,91,92,92,90,94,93,92,95,89
126,67,66,68,128,68,67,68,67,129
98,65,64,65,61,68,68,68,30,64
96,68,67,67,65,68,70,68,29,67
90,71,70,70,66,69,82,81,64,81
85,75,74,74,74,74,80,80,64,75
90,68,68,67,66,69,71,71,64,67
102,69,67,67,26,70,71,70,31,28
97,70,69,69,67,70,72,71,30,67
98,66,66,65,130,68,71,71,29,66
99,63,62,62,60,64,65,64,60,60
92,66,64,64,63,67,67,67,30,64
98,68,66,67,64,68,69,69,30,65
96,66,65,64,63,66,66,66,129,64
96,68,66,66,64,69,69,69,30,66
68,65,64,61,60,35,68,66,36,65
81,69,69,67,129,69,69,69,31,69
71,66,64,63,58,66,68,68,32,64
97,69,65,65,63,69,69,69,30,65
92,64,63,63,60,65,66,66,30,62
95,65,63,63,60,65,66,65,30,63
87,66,66,66,63,68,69,68,63,66
91,65,63,59,59,63,67,65,34,97
97,66,65,65,61,68,68,68,29,64
140,56,56,56,55,61,60,60,57,55
72,65,62,62,62,65,65,66,35,62
64,67,31,32,28,35,67,65,35,67
86,70,69,68,67,69,71,71,64,68
100,106,66,64,64,68,106,106,31,27
95,67,65,65,64,68,69,68,129,65
71,68,65,66,65,67,70,67,35,67
96,63,63,63,60,65,66,65,30,63
69,66,65,63,63,66,68,66,32,64
85,73,70,70,129,70,76,73,66,130
96,67,66,66,128,66,69,67,129,66
66,73,73,73,72,77,75,74,78,71
89,79,78,72,129,72,87,80,68,130
93,67,66,66,63,68,70,68,64,67
92,71,72,72,69,74,43,44,71,67
96,66,65,65,63,67,69,68,29,65
68,65,63,64,61,67,67,66,30,64
102,66,65,64,63,66,66,66,29,64
97,63,62,62,60,65,65,64,28,62
94,66,61,61,60,64,69,66,33,63
95,67,66,65,63,68,69,68,130,65
99,63,63,62,60,66,67,67,29,63
95,71,68,68,67,70,75,72,30,71
98,64,63,63,60,65,67,65,29,63
74,68,64,63,63,66,68,68,62,64
92,64,62,63,60,64,64,64,34,61
99,66,65,63,62,66,66,66,28,65
71,64,63,64,60,66,66,66,30,62
97,68,68,68,66,70,70,69,29,68
93,69,69,69,65,70,72,70,29,69
90,69,68,68,67,70,71,71,66,68
101,66,63,60,60,63,66,67,40,60
72,68,66,65,63,68,69,69,128,65
44,70,105,104,77,93,70,70,83,67
100,70,69,68,66,70,71,71,65,68
98,65,64,63,130,66,67,66,28,63
90,97,50,50,98,106,66,95,100,96
101,70,69,69,66,72,73,72,30,68
93,71,68,67,63,71,71,68,68,68
67,66,63,63,63,66,67,64,33,63
93,67,66,66,64,68,68,68,30,66
94,63,61,60,59,63,65,64,39,60
96,64,62,62,25,66,66,65,29,27
97,66,66,66,129,67,69,69,64,66
63,37,34,33,34,38,38,38,38,59
102,67,64,64,61,67,67,67,30,64
95,102,79,78,101,78,96,99,30,100
91,30,62,29,27,33,68,65,34,28
101,64,64,61,61,65,66,66,31,62
101,66,65,65,62,66,68,66,29,101
90,70,70,66,66,69,72,70,30,68
97,67,66,66,63,68,69,68,29,100
106,67,66,66,62,67,68,67,30,64
90,68,67,67,130,69,71,71,64,66
96,67,66,65,62,68,69,68,30,65
86,64,60,65,67,64,63,65,33,65
76,67,64,64,61,64,69,67,39,66
95,66,65,64,63,68,68,68,30,64
92,68,67,67,128,68,70,68,63,64
89,66,63,66,61,67,68,67,30,67
102,64,63,63,61,65,66,65,29,63
97,66,65,65,129,67,69,68,29,65
32,66,62,60,68,68,65,66,45,44
59,76,77,77,75,84,78,78,79,72
95,69,68,68,65,69,70,70,30,66
98,65,62,62,26,66,67,65,30,62
95,66,63,63,26,66,66,66,31,63
91,59,35,30,34,37,59,59,38,59
97,67,66,66,62,68,70,68,65,65
71,72,68,69,72,73,72,72,81,71
97,67,66,66,129,67,70,68,29,64
93,66,63,63,63,65,66,66,30,63
96,65,64,64,63,67,69,69,28,64
83,73,73,69,67,73,73,73,29,67
97,67,66,66,64,69,72,69,29,67
101,68,67,67,65,68,69,69,30,67
97,66,65,65,62,67,67,67,29,65
99,66,66,65,62,68,68,68,30,65
90,67,66,64,63,69,68,68,29,65
91,67,67,67,64,69,69,69,30,68
94,68,66,66,65,68,68,68,36,29
90,71,69,69,66,72,72,72,30,69
98,64,62,62,61,65,66,65,30,61
92,64,63,62,62,67,66,64,30,63
86,67,67,64,64,67,70,69,63,129
92,69,69,67,127,70,70,70,65,67
95,66,66,65,62,67,68,66,62,63
91,41,45,40,41,39,45,42,36,42
69,97,95,97,93,95,70,70,103,72
90,67,66,66,64,67,69,69,30,64
91,65,64,64,26,65,70,67,32,26
70,62,61,58,58,58,64,64,31,64
90,70,68,66,65,69,71,68,63,65
99,71,70,70,69,70,73,71,66,71
90,65,61,31,30,37,66,63,41,64
95,67,67,64,65,68,67,67,30,67
94,66,64,64,62,67,68,68,129,64
91,71,70,70,69,71,73,72,31,70
98,67,66,66,130,68,69,69,29,66
93,66,64,64,64,66,68,68,36,64
93,68,68,66,63,68,71,71,63,65
96,69,67,64,64,68,69,69,30,69
96,66,65,65,62,67,68,66,28,64
94,65,64,63,61,65,67,66,30,63
88,69,68,66,64,69,70,69,30,67
92,72,71,68,67,70,70,71,31,70
93,67,65,65,128,67,71,68,30,65
68,66,63,63,61,66,68,66,29,63
67,63,62,62,59,63,65,65,29,62
92,65,64,64,60,66,67,65,35,64
64,64,56,49,69,40,64,61,35,62
71,67,66,66,64,67,69,67,29,65
100,65,63,65,59,66,67,66,33,64
99,64,62,62,60,66,102,65,29,102
98,68,67,67,129,69,70,69,64,129
93,93,93,92,88,64,93,88,65,93
86,72,71,70,69,72,74,72,67,71
92,68,67,67,67,70,71,71,31,66
93,70,69,69,68,72,73,72,30,68
97,71,68,68,66,71,73,72,64,68
95,68,66,66,64,68,69,68,129,66
94,67,67,67,63,69,70,68,30,66
99,65,63,63,61,65,67,66,29,63
88,66,64,62,62,66,67,67,31,63
100,31,30,30,27,34,69,68,31,28
99,66,65,65,62,66,68,67,29,65
92,108,107,108,108,108,108,109,112,109
92,67,65,65,64,67,67,67,32,65
98,64,63,63,61,66,66,65,29,63
103,69,68,67,66,70,70,70,31,67
88,70,69,63,127,67,72,72,29,129
97,68,68,67,130,69,71,70,65,68
100,69,68,68,131,69,72,71,66,69
68,66,64,64,62,67,67,67,30,64
88,30,29,33,33,45,33,32,37,31
94,70,68,69,65,70,72,70,30,99
98,66,65,65,65,68,68,68,30,65
63,33,31,31,36,39,35,34,35,32
67,65,63,63,30,67,66,66,35,29
65,64,62,30,26,33,66,65,31,28
98,64,64,64,129,65,67,66,29,64
95,63,62,29,26,33,65,65,30,28
72,69,68,68,65,69,71,69,32,68
98,66,65,63,62,67,68,68,28,64
97,68,67,67,64,68,69,68,28,67
94,65,64,65,60,66,68,66,31,62
96,66,65,65,65,67,68,67,29,65
95,68,68,68,65,68,69,69,30,65
95,75,72,70,70,71,77,75,67,70
97,67,66,66,129,68,69,68,29,66
92,67,67,67,67,68,70,68,30,67
89,66,65,65,63,67,67,67,63,64
96,68,67,67,63,68,69,69,29,67
91,65,62,64,60,66,66,66,30,66
90,69,69,68,64,70,70,69,63,66
94,68,68,68,64,68,70,69,29,68
62,100,97,97,93,101,101,100,97,95
96,67,65,65,63,68,69,68,30,65
91,69,69,68,67,71,71,69,30,27
99,69,68,67,64,70,70,70,30,68
91,66,64,65,64,68,68,66,29,65
87,67,66,63,60,67,67,67,30,62
93,64,73,73,67,67,61,59,30,61
97,66,65,64,62,67,69,67,29,65
92,67,64,63,62,67,67,67,30,64
76,64,64,63,63,66,66,65,62,64
94,69,70,68,68,68,71,70,63,68
80,67,64,60,124,65,66,67,34,64
99,66,64,65,61,67,68,67,30,64
98,65,64,64,62,66,67,66,29,64
92,73,73,71,68,71,74,73,30,73
94,67,66,64,63,67,69,67,29,65
62,63,60,60,62,64,63,63,68,63
91,80,80,80,72,80,80,80,71,80
96,30,29,29,27,32,66,65,33,27
89,66,64,64,64,66,66,66,30,66
86,69,68,66,65,69,70,70,62,67
101,68,66,68,64,69,70,69,30,66
96,69,68,68,66,69,71,71,28,68
98,65,64,64,61,66,67,66,29,65
57,66,69,70,67,75,65,61,74,63
30,34,64,64,34,48,67,66,40,34
92,68,68,68,64,68,70,69,29,67
60,65,72,71,68,45,63,61,31,62
70,67,66,65,62,68,68,68,129,66
60,72,71,40,68,38,62,58,35,69
66,62,51,51,44,44,60,62,38,64
91,92,94,93,93,94,88,93,93,93
95,67,65,65,63,67,68,68,29,65
92,67,66,66,65,68,69,69,31,66
95,67,67,67,129,68,71,68,63,67
96,71,69,69,66,71,71,71,31,69
90,66,63,66,62,67,69,66,30,63
88,101,101,101,101,102,101,101,100,98
94,67,66,66,63,67,68,67,30,65
99,69,69,66,64,70,71,69,29,69
94,67,67,64,63,67,67,68,34,65
99,66,63,62,26,65,66,64,37,63
94,66,65,65,62,68,70,68,30,64
93,68,65,65,61,69,70,67,30,66
42,100,101,100,99,101,100,101,96,96
73,67,64,64,63,67,67,67,35,64
99,67,66,66,130,68,69,68,29,67
94,66,65,65,128,68,68,69,64,129
98,66,66,66,63,66,68,66,30,64
97,66,64,63,62,66,67,66,63,64
61,61,59,60,63,81,63,62,88,61
96,68,66,65,64,68,69,68,29,65
93,66,66,66,64,68,71,69,29,66
90,74,73,71,68,73,76,75,30,73
98,63,63,63,60,65,65,65,29,61
95,82,80,79,75,69,88,85,64,91
97,65,64,64,61,67,68,67,28,64
94,67,66,66,64,69,70,70,30,65
67,66,64,64,61,67,68,67,29,63
92,79,77,77,74,76,81,81,68,79
88,70,70,67,70,70,72,70,67,70
66,64,63,63,25,65,66,66,29,62
91,66,66,64,64,68,67,68,32,64
93,79,75,75,72,75,88,87,65,129
92,65,64,64,63,68,68,66,28,64
89,64,61,64,64,64,67,64,36,64
94,68,68,67,65,70,71,71,30,68
93,71,70,70,68,73,74,73,30,99
92,76,75,75,74,75,78,76,67,75
98,69,67,66,66,70,70,70,30,67
92,69,69,69,67,69,70,70,30,69
91,68,68,65,65,68,68,68,61,65
94,62,61,59,62,65,62,62,35,62
94,67,66,66,64,68,69,69,64,66
96,67,66,66,129,68,69,69,29,130
69,66,64,66,60,66,68,67,29,66
96,65,65,65,64,67,67,67,30,65
100,68,68,67,66,70,71,70,67,68
67,64,63,62,59,64,66,66,32,63
69,79,80,81,78,86,82,81,90,76
93,70,53,52,33,41,70,66,37,69
92,69,60,61,61,64,70,62,37,62
98,61,58,30,26,34,61,62,32,59
90,68,66,64,97,68,68,68,33,95
101,70,68,67,132,71,71,70,30,68
97,71,70,70,66,72,73,73,30,68
94,65,65,65,61,67,68,67,30,65
87,68,67,67,128,68,70,70,30,67
94,67,67,67,64,68,70,69,29,65
104,64,64,64,62,64,67,67,35,27
87,65,62,62,58,65,65,62,56,60
97,69,69,69,68,71,72,71,31,70
96,66,65,65,62,67,68,68,130,64
98,65,64,63,63,66,66,66,29,63
89,64,61,63,64,66,66,64,33,61
72,70,69,69,66,71,72,71,30,70
90,65,65,65,61,66,67,66,29,64
96,31,30,30,26,34,68,65,35,29
87,67,65,65,63,68,68,67,30,65
97,68,64,66,61,67,69,68,31,68
103,62,62,61,62,63,64,64,35,62
98,66,65,65,62,69,67,66,67,66
94,66,64,65,62,67,68,67,32,64
92,70,69,69,127,70,71,71,64,128
98,66,64,64,62,67,67,67,32,64
63,63,60,60,67,68,64,64,77,64
28,62,60,60,102,47,64,62,38,33
101,71,70,68,66,71,72,72,30,99
89,67,64,62,59,65,70,67,34,66
95,69,67,67,65,69,71,69,129,67
64,59,46,41,41,40,59,59,31,67
97,66,65,64,61,67,67,67,30,64
105,68,67,67,65,69,70,69,29,66
97,64,63,63,59,64,67,64,29,64
62,65,48,47,67,38,63,62,31,63
98,66,66,66,63,67,68,68,31,66
95,68,65,65,62,68,68,68,31,65
84,68,66,65,128,68,68,68,64,129
100,67,67,67,64,69,69,68,31,65
98,67,64,64,63,67,67,67,28,64
98,67,66,66,129,67,70,68,63,66
96,64,63,63,59,65,67,65,28,63
89,66,64,63,62,66,65,67,31,64
61,75,75,75,71,77,89,87,72,89
68,65,64,64,61,66,68,66,29,64
99,30,65,30,26,66,68,67,33,28
96,85,81,79,75,79,87,86,68,86
101,67,66,66,62,68,70,69,29,64
58,63,61,75,70,81,62,63,98,62
92,68,66,69,69,69,67,69,62,66
97,67,66,66,64,68,69,69,29,66
94,67,65,66,63,68,68,67,63,65
98,65,65,65,128,66,68,67,28,65
95,63,61,61,25,64,65,65,29,96
99,65,64,63,61,64,67,67,29,63
67,67,58,58,70,51,66,64,38,66
98,64,63,63,62,66,66,66,28,64
77,72,69,69,129,72,72,72,29,70
97,65,64,64,61,66,67,66,30,63
89,74,74,72,70,72,76,76,66,71
63,65,60,30,32,40,63,63,35,65
91,67,65,65,63,69,69,69,65,65
97,68,66,66,24,69,70,69,28,66
102,67,65,65,64,69,69,69,30,65
92,69,68,67,64,70,70,69,30,98
91,82,79,75,74,75,83,82,67,82
65,65,63,63,61,65,66,65,32,63
91,97,97,97,24,96,96,98,28,94
31,43,44,44,43,44,34,33,44,37
87,66,66,65,64,67,69,69,29,96
91,79,78,31,75,34,87,86,30,87
94,70,68,69,65,72,72,71,31,99
66,65,62,63,56,64,63,65,63,64
99,67,67,66,64,68,70,70,30,66
65,64,61,61,58,64,65,64,128,61
63,77,80,80,77,77,88,88,73,70
90,69,68,69,66,70,71,71,29,67
91,67,64,64,71,68,67,65,71,65
90,64,63,60,59,58,63,65,36,28
89,73,71,71,26,73,85,74,31,28
99,67,66,66,64,69,70,70,30,67
92,71,71,67,66,71,71,71,66,67
105,71,70,70,67,72,75,73,30,69
97,67,66,66,62,68,69,68,29,67
94,71,69,69,66,71,74,73,66,68
96,66,65,65,128,68,68,68,30,65
57,86,83,84,87,88,86,86,92,86
94,67,65,64,129,67,67,67,130,64
99,67,66,66,130,67,69,68,63,131
64,91,76,76,94,50,91,90,43,92
92,64,62,60,127,64,64,64,40,64
95,67,65,64,63,68,68,67,30,64
90,67,66,66,66,68,69,68,30,66
101,66,64,64,61,67,68,67,29,101
95,67,65,65,62,67,68,67,64,64
29,30,64,31,101,33,33,32,35,29
87,65,64,63,63,67,67,65,64,65
87,64,62,62,61,64,67,64,30,63
29,30,29,34,97,45,33,32,37,32
95,66,65,64,63,67,68,67,63,65
88,67,67,67,63,68,68,68,31,65
101,67,65,64,62,67,68,67,30,67
97,68,65,65,64,67,69,68,29,67
92,31,62,65,61,65,64,65,37,28
97,66,64,64,129,67,67,67,63,64
94,67,65,65,63,67,69,68,29,64
99,60,56,50,25,41,60,61,31,61
87,65,64,60,61,68,64,67,61,62
89,67,65,67,62,67,69,67,31,67
89,70,68,68,64,70,71,71,64,69
98,67,66,66,129,66,67,67,29,65
95,65,63,63,61,67,67,66,30,63
98,68,67,66,63,69,69,68,30,66
91,69,69,66,127,69,72,69,66,69
99,70,68,68,68,71,72,71,30,68
87,69,68,68,129,70,71,70,29,66
70,63,62,61,60,63,65,65,30,62
89,68,67,67,128,69,70,70,65,68
92,72,71,67,67,70,75,74,66,67
96,72,71,69,131,72,74,75,69,71
101,69,68,68,26,70,71,70,30,68
93,68,68,68,64,68,71,68,30,68
95,66,64,66,62,67,69,68,29,66
68,66,63,63,127,67,67,68,69,64
91,69,68,68,65,69,70,69,30,67
90,30,59,29,25,32,64,62,34,27
96,69,68,67,130,69,72,70,65,68
96,66,65,65,61,65,68,67,30,65
95,64,62,63,64,66,67,64,29,63
96,69,69,69,65,69,72,72,29,66
99,66,65,65,62,68,69,68,29,65
89,44,44,44,43,45,43,44,40,94
72,67,65,65,63,67,68,68,63,65
71,68,68,68,66,70,70,69,32,68
99,62,60,60,57,63,63,63,36,99
92,72,72,70,69,71,74,73,67,70
92,64,63,62,60,65,67,65,30,62
87,100,101,101,100,75,86,102,30,99
85,67,67,65,127,67,69,68,64,128
95,66,64,64,61,66,68,68,29,63
66,71,56,46,48,46,63,65,32,62
77,85,86,87,85,89,86,86,92,86
90,68,69,65,61,65,69,66,65,66
67,65,64,61,57,57,65,64,57,64
52,59,57,57,56,63,61,60,71,57
89,68,65,65,63,68,68,68,32,65
100,69,68,67,64,69,70,69,30,67
92,67,65,65,62,68,69,67,65,65
92,67,65,66,66,69,69,69,33,65
98,72,70,70,129,72,73,73,30,130
71,67,65,66,62,67,70,68,29,65
86,96,100,99,98,100,87,86,129,93
37,30,28,28,25,32,32,32,33,35
97,67,67,66,129,67,69,68,28,66
100,71,69,69,131,71,75,72,29,69
67,98,60,98,98,48,64,64,40,97
88,79,76,76,71,74,84,82,66,81
95,67,66,66,62,67,67,67,29,66
92,69,67,67,62,70,70,69,31,69
97,68,67,67,63,68,69,69,29,67
101,65,63,63,25,65,67,66,30,63
92,65,63,63,62,66,67,67,62,63
95,67,66,66,63,68,70,68,29,65
95,66,64,64,26,68,68,68,32,64
92,63,56,56,54,48,62,64,35,64
100,102,66,66,64,69,71,70,30,101
91,67,65,65,61,67,68,67,29,67
95,64,62,62,60,66,66,64,32,62
97,67,65,66,65,68,69,67,31,66
97,29,28,29,25,32,32,31,34,27
94,63,61,62,58,65,65,63,36,61
66,64,62,30,26,33,66,66,34,28
103,65,64,62,62,66,66,66,29,64
90,69,69,66,65,69,71,69,65,67
64,42,39,36,36,43,43,42,36,37
100,66,63,63,62,66,67,67,30,62
101,65,64,64,62,66,66,66,29,64
94,67,64,64,64,67,67,67,32,64
93,66,65,66,63,67,68,67,31,65
62,75,76,73,72,77,80,77,71,71
78,68,68,67,129,69,71,69,66,68
91,82,75,73,72,73,83,83,64,82
98,69,67,67,66,70,70,70,30,66
95,68,68,66,63,68,68,68,64,66
112,110,101,100,100,99,110,107,64,110
94,68,66,67,64,69,69,69,29,66
95,69,67,66,129,69,69,69,66,68
95,66,65,66,62,67,69,69,30,64
93,65,64,64,61,66,67,66,29,64
72,68,67,67,128,68,71,71,29,67
92,68,70,68,67,70,72,70,30,69
66,63,62,62,58,65,65,64,30,62
90,34,33,34,29,34,38,35,30,35
98,65,64,63,129,65,66,66,62,64
69,62,60,60,58,63,64,64,30,60
103,68,67,67,65,69,71,69,30,67
110,99,99,98,98,100,109,110,56,111
97,69,69,68,129,69,70,69,29,130
63,64,61,60,64,62,64,64,30,63
93,66,75,65,64,68,68,70,70,63
92,65,57,58,71,43,68,65,36,63
75,68,68,68,66,69,71,71,30,68
95,90,85,86,83,85,92,90,75,85
61,80,79,78,76,82,91,91,77,72
95,77,77,73,72,75,79,84,31,74
95,67,66,66,64,67,68,68,29,66
61,72,71,71,68,76,72,71,74,66
100,70,68,68,66,70,70,70,30,68
95,67,65,64,63,68,69,68,64,64
88,68,68,67,129,68,68,68,32,65
93,64,62,60,57,64,64,64,36,64
91,67,67,66,64,67,69,69,29,66
63,82,78,81,86,95,82,81,37,84
91,66,63,62,62,65,65,66,32,63
96,68,66,66,128,68,70,69,130,130
103,68,68,67,66,69,70,69,65,66
99,64,63,64,60,66,66,66,29,63
98,64,62,61,59,64,65,65,29,61
77,68,61,56,72,67,67,70,31,60
66,65,62,64,26,66,68,67,30,64
72,66,65,65,128,66,68,68,62,129
90,66,65,65,63,68,68,67,63,66
96,65,64,63,62,66,67,66,29,64
72,68,67,67,65,69,70,69,30,67
96,65,64,64,61,67,67,67,30,63
101,67,65,65,62,68,69,68,30,64
29,42,45,43,38,45,33,32,38,34
98,66,65,64,61,65,68,66,29,63
94,66,64,64,64,67,69,67,30,64
66,35,45,43,41,43,34,36,37,33
98,65,63,63,60,65,66,66,29,63
96,65,63,63,62,66,67,66,30,63
94,68,65,64,62,67,68,68,129,65
65,66,60,46,29,36,65,63,34,63
69,69,66,66,65,69,69,69,31,67
87,68,67,67,64,69,70,70,129,67
62,67,48,46,68,45,66,63,35,67
84,67,65,65,64,67,69,66,61,65
98,68,67,67,64,70,70,70,29,67
62,32,31,38,69,36,35,34,38,30
91,66,63,62,61,67,66,66,33,63
95,65,64,62,61,65,67,67,30,63
91,73,72,70,68,71,76,76,67,70
72,67,65,65,62,67,69,68,33,65
98,66,64,64,61,67,68,68,28,64
95,66,63,63,60,66,67,66,34,62
100,67,66,67,64,67,69,67,29,65
102,67,65,63,63,66,67,67,29,65
72,66,66,66,26,68,69,68,31,28
102,65,65,65,63,66,66,66,30,63
94,69,68,67,67,69,70,70,30,68
91,69,65,61,57,65,70,69,49,69
76,88,106,88,101,92,91,90,88,88
63,63,60,61,26,33,65,63,30,63
71,64,55,54,54,57,64,67,127,70
101,67,66,66,131,69,69,68,29,67
90,70,71,70,127,69,72,71,65,128
94,69,66,66,64,68,69,69,63,65
97,68,68,68,65,69,68,68,30,67
92,63,59,30,27,34,64,64,35,64
95,66,64,63,63,67,67,66,30,64
90,64,61,60,60,65,64,65,31,64
89,69,66,66,64,67,71,69,28,66
67,61,61,60,59,61,62,61,35,61
89,74,71,71,70,73,78,76,67,71
89,68,67,67,128,69,70,70,65,129
99,69,69,69,66,70,72,70,30,69
57,64,70,70,67,74,63,65,78,65
64,64,61,29,25,33,65,64,31,27
93,30,61,29,30,65,65,64,35,28
93,65,62,62,61,66,67,66,31,62
87,68,66,67,128,69,69,69,64,129
90,74,74,74,71,73,75,75,68,74
90,70,67,67,67,70,72,70,65,68
43,33,32,32,27,35,41,36,32,36
97,68,67,68,65,70,71,70,29,66
92,69,69,68,67,69,71,71,61,69
89,62,60,55,66,64,63,62,31,61
97,66,66,65,63,67,69,68,29,96
75,67,66,67,127,69,69,68,64,128
96,68,68,66,129,68,69,68,64,68
96,66,65,65,25,69,69,68,30,27
100,69,69,69,67,69,70,69,30,69
86,63,62,60,66,64,64,65,37,64
100,64,63,63,60,66,66,65,34,61
92,68,65,65,63,68,68,68,29,65
83,79,77,72,127,72,81,80,66,129
90,69,68,68,65,70,71,70,68,68
97,68,66,66,64,69,69,69,65,66
96,67,66,65,63,68,69,68,30,65
68,63,61,60,57,63,65,64,33,63
92,69,73,61,60,69,73,70,64,128
97,65,65,65,63,66,67,67,29,65
99,68,67,67,130,69,70,69,29,68
129,70,68,67,66,70,71,71,62,68
70,67,66,66,62,67,68,68,34,66
63,39,44,44,42,48,62,62,39,38
79,69,64,68,63,68,67,69,69,69
69,67,64,65,61,67,68,67,32,65
101,67,65,65,63,67,69,67,30,65
100,69,68,68,65,70,70,69,30,67
91,69,68,68,64,70,71,71,30,69
66,66,63,63,61,66,66,66,30,63
90,67,63,64,63,68,66,66,35,63
99,67,67,67,130,68,70,69,65,67
93,68,67,67,26,68,70,69,30,28
97,67,66,66,129,67,69,68,29,65
91,69,68,66,65,68,69,71,65,66
92,68,66,67,63,68,70,68,31,66
69,65,63,63,60,66,68,66,29,63
97,66,63,63,62,66,66,66,31,64
66,68,64,60,71,68,68,65,38,66
89,67,66,66,65,68,70,69,29,66
61,44,77,76,73,77,40,62,40,39
95,66,65,65,62,67,69,67,30,65
98,65,64,64,130,66,66,66,61,64
104,70,67,67,26,70,71,70,31,28
101,64,61,61,58,64,64,62,33,62
91,68,67,66,65,69,71,69,129,67
99,65,65,65,129,66,67,67,28,65
64,65,62,62,65,66,65,65,32,62
61,61,58,56,64,46,61,61,32,59
102,68,66,30,26,69,71,68,31,28
95,67,66,66,63,68,69,68,29,66
84,68,68,68,65,68,69,70,63,66
98,67,65,67,62,67,68,68,61,64
69,58,52,52,52,37,61,58,32,58
71,67,65,64,62,66,67,67,30,64
93,65,64,64,61,67,68,68,28,64
95,68,67,67,128,69,70,69,66,130
91,64,61,59,60,65,65,64,38,62
94,63,62,60,58,64,64,64,31,60
97,66,65,65,65,67,67,66,32,66
64,61,59,58,46,46,63,64,38,59
101,65,63,63,61,66,66,65,29,63
73,67,67,67,127,69,70,69,30,65
96,65,64,63,60,66,66,67,29,64
90,68,66,66,66,69,69,69,30,66
95,68,67,66,63,69,71,69,30,66
98,64,62,63,129,65,66,66,29,62
94,69,68,68,66,71,71,71,31,100
37,106,104,103,99,100,106,106,65,106
70,67,66,66,128,68,70,68,65,65
90,69,69,66,65,69,70,70,65,69
95,69,69,66,66,69,69,69,30,68
96,68,67,67,63,69,70,70,130,65
70,67,64,64,63,68,68,67,29,65
93,67,67,66,62,68,69,67,30,64
98,67,65,64,130,67,67,67,62,65
97,67,66,66,61,67,68,68,31,67
97,67,65,64,64,67,68,67,30,67
70,65,64,64,63,66,66,66,63,65
72,48,50,49,43,50,50,50,45,44
68,68,65,64,62,68,68,68,31,65
98,65,64,63,129,66,67,67,63,63
99,69,68,67,66,70,71,70,29,68
84,61,58,61,61,63,63,62,65,63
86,75,76,74,128,76,76,76,71,128
73,68,68,67,127,68,70,70,29,128
66,77,78,78,76,81,79,78,84,74
98,101,65,65,62,67,68,67,30,101
95,69,66,66,63,69,69,69,128,68
94,68,66,65,128,68,69,68,130,66
100,70,70,68,67,70,70,70,30,68
98,66,66,64,129,66,68,67,29,131
62,39,30,31,37,36,34,36,37,37
95,66,66,65,64,67,70,67,64,66
96,69,67,67,66,69,70,70,30,67
99,72,70,70,68,72,73,72,30,70
90,67,66,66,61,66,69,69,61,129
64,44,41,41,39,40,49,46,34,46
63,33,35,35,29,35,40,43,69,63
95,67,66,66,129,68,70,69,64,129
94,67,64,64,61,67,68,68,29,64
98,62,62,60,58,62,65,63,29,62
88,67,67,67,128,69,70,70,64,129
129,67,66,66,63,68,68,68,63,129
97,68,67,66,129,68,70,68,28,66
92,67,64,63,62,66,67,67,31,65
91,67,66,66,128,68,69,68,65,66
90,72,71,70,69,73,73,73,73,73
98,65,63,63,25,65,65,65,29,63
100,69,68,68,64,70,70,70,31,68
102,66,65,65,62,67,68,68,30,65
91,68,68,68,128,68,73,73,64,129
94,64,63,64,61,67,67,66,30,64
91,73,70,70,66,70,73,73,66,73
99,66,66,64,62,33,66,64,29,64
97,67,67,67,65,68,70,67,63,67
66,63,62,62,127,66,65,67,30,63
93,68,67,66,64,68,69,69,31,66
98,65,63,63,61,66,67,66,28,65
90,65,73,72,68,76,65,62,42,63
88,68,65,64,63,68,70,69,63,64
62,46,48,46,43,49,63,61,95,95
90,69,68,68,66,68,72,68,29,68
91,66,64,63,60,66,66,64,63,63
93,70,67,67,128,68,72,70,64,129
96,69,66,66,129,68,70,70,63,130
94,68,67,67,26,68,70,70,32,28
93,66,65,65,63,66,70,68,30,65
88,65,63,63,66,65,65,66,36,62
87,69,69,68,68,69,71,70,66,69
95,69,67,67,63,69,71,69,29,69
97,66,64,64,61,66,68,67,29,64
98,69,66,66,63,68,71,69,30,65
95,66,64,65,62,66,68,67,29,64
96,68,68,66,66,68,71,69,29,68
100,68,67,67,65,69,70,69,31,67
99,69,68,68,64,70,71,71,30,67
98,70,68,68,68,71,72,71,30,100
96,65,63,62,60,65,66,66,30,96
92,66,48,53,43,47,62,60,38,64
91,71,72,70,126,69,72,72,64,69
64,64,61,59,59,63,66,64,37,60
96,67,67,66,65,68,70,68,29,67
96,66,65,64,63,66,70,68,129,64
89,48,48,48,44,51,59,59,44,43
83,49,49,53,56,52,50,83,54,77
99,64,62,62,60,65,66,65,29,61
91,73,71,68,67,73,72,74,35,69
69,31,30,31,27,34,66,66,34,29
94,101,66,66,26,68,70,69,30,100
65,28,27,27,24,31,31,30,31,26
93,69,68,67,64,70,72,72,30,69
84,68,68,68,128,69,72,72,66,129
105,67,67,66,66,69,69,68,30,66
94,68,67,66,128,69,71,69,66,129
91,68,66,66,64,68,68,68,29,66
64,41,41,37,40,42,62,59,37,65
99,70,69,69,131,71,73,71,66,69
92,68,67,67,127,71,71,71,67,129
94,65,64,64,61,67,67,66,33,27
31,41,43,43,41,44,41,41,39,39
67,65,62,62,61,65,66,66,31,65
96,68,66,66,63,68,70,69,30,65
97,66,64,64,61,67,68,67,29,64
94,31,75,33,30,44,67,33,34,74
98,70,69,68,67,70,72,72,29,69
85,69,66,65,62,68,69,70,29,68
82,66,64,65,128,67,68,67,64,64
91,69,75,67,127,70,69,66,67,128
96,67,65,65,63,68,69,68,29,65
95,68,67,67,64,67,70,68,30,67
98,67,67,67,63,68,69,68,30,66
96,66,66,65,62,67,69,67,31,96
69,64,59,59,58,63,67,64,32,69
91,74,74,70,129,74,74,75,35,129
94,66,64,64,62,66,68,67,31,66
76,77,77,78,78,84,80,79,83,78
87,73,73,69,69,71,79,81,66,78
91,90,74,73,127,74,90,87,66,90
63,45,47,45,43,47,60,57,94,94
88,74,73,73,69,68,77,78,66,77
93,67,64,64,63,68,67,67,31,64
99,68,68,68,65,70,73,72,30,100
91,69,66,66,128,67,69,70,64,129
91,64,63,62,61,65,66,67,30,62
98,66,65,65,129,67,68,67,63,64
94,64,63,64,60,65,66,65,30,63
94,65,63,64,63,67,66,65,34,65
90,68,67,68,64,69,71,71,30,69
103,29,28,28,25,32,69,67,30,26
94,65,63,62,60,66,66,66,32,62
97,64,62,62,60,65,68,67,29,62
93,61,60,56,64,60,60,62,41,62
73,70,69,69,67,71,72,72,30,70
104,69,68,68,64,69,71,69,30,66
87,68,68,68,65,69,70,69,65,68
74,65,63,63,62,66,67,66,29,63
95,67,65,65,61,67,69,68,30,65
93,69,68,68,65,69,71,69,30,66
93,63,59,59,60,63,63,64,60,61
92,66,63,62,61,65,66,66,31,63
64,64,61,63,64,64,63,63,43,63
130,69,69,69,129,69,69,69,61,130
95,67,65,65,62,67,69,67,30,65
90,70,67,67,66,70,70,71,66,67
66,42,59,46,38,46,63,63,40,36
68,31,30,30,26,33,68,67,34,28
89,70,70,69,67,69,72,72,65,129
92,65,62,60,25,33,67,65,31,64
90,79,77,77,74,77,83,81,71,79
102,105,74,29,26,73,105,105,30,27
94,71,67,68,66,70,71,71,32,66
54,60,59,59,59,62,62,61,64,61
90,71,71,71,70,70,73,71,66,71
63,64,47,46,42,44,61,58,39,37
90,68,66,66,128,67,70,68,63,66
99,73,72,72,132,73,77,74,69,133
101,65,63,64,24,66,67,66,30,26
52,60,58,58,58,62,62,61,72,61
100,64,61,62,61,65,65,64,36,62
102,67,66,65,64,67,69,67,29,66
71,66,65,65,128,68,68,68,62,65
95,65,64,64,62,66,67,67,30,64
98,65,64,64,61,67,67,67,28,65
92,71,69,67,66,71,71,73,66,68
91,67,65,67,63,67,67,67,29,67
96,66,65,65,62,66,67,67,130,65
96,30,28,29,26,32,32,31,35,27
70,65,64,64,63,67,68,68,31,64
93,66,65,65,62,67,68,67,28,65
100,72,69,69,67,71,72,72,30,69
98,66,65,65,62,67,68,66,29,65
98,30,62,31,32,33,64,32,35,30
100,70,69,68,64,70,72,70,30,69
98,68,68,68,64,69,71,69,30,65
76,67,65,65,63,67,72,69,129,65
97,69,66,66,64,69,72,70,130,66
70,65,64,64,62,65,68,66,33,64
94,67,66,65,64,67,67,67,30,66
95,67,66,64,64,67,69,67,33,64
104,68,67,67,64,68,69,69,31,68
99,64,62,62,60,65,66,65,29,62
91,70,69,69,66,71,72,72,30,69
99,29,28,28,24,32,63,62,31,26
98,67,66,64,64,67,70,67,30,64
89,68,61,44,41,43,67,65,44,63
89,78,75,75,73,71,78,78,63,78
72,66,62,62,59,66,67,66,32,68
65,64,62,62,129,64,65,65,32,62
96,68,68,68,65,69,70,70,30,68
95,68,67,67,65,70,71,71,29,66
99,65,63,63,61,66,67,66,29,62
70,66,65,65,62,66,69,67,29,64
71,69,67,67,65,70,71,70,29,67
100,68,65,65,26,69,70,69,30,101
98,70,69,69,65,69,72,70,30,70
73,68,67,67,64,67,70,68,30,67
96,66,65,65,63,69,69,69,30,63
99,70,68,68,131,71,72,71,30,68
97,67,66,66,129,68,69,68,65,66
97,67,65,64,129,68,68,68,29,65
89,68,67,65,66,68,68,68,29,67
90,66,66,66,128,68,69,69,63,66
84,71,71,68,66,69,71,71,64,70
89,69,71,69,69,71,75,74,66,71
93,66,63,61,66,68,68,66,31,63
113,110,110,112,111,111,111,111,113,111
99,65,64,64,61,66,68,68,29,64
95,68,67,67,66,68,70,68,66,66
69,68,66,64,27,67,68,65,30,64
98,65,62,65,62,65,67,65,64,64
70,66,65,61,61,65,68,66,33,66
71,65,63,64,61,65,67,65,29,64
93,65,64,64,62,66,68,68,29,64
93,90,89,92,93,92,91,93,91,91
67,67,64,30,27,33,67,67,33,63
90,67,66,67,64,68,69,67,61,66
96,66,62,65,65,66,66,65,36,66
86,68,67,67,64,69,69,69,41,67
95,66,64,64,61,67,67,67,30,64
101,67,67,67,64,69,70,70,64,67
29,30,30,29,33,34,32,31,39,29
94,65,64,64,26,65,68,66,32,65
71,67,65,65,62,67,70,68,29,67
94,67,67,66,65,67,69,68,29,66
86,66,63,63,61,67,66,67,29,63
96,65,64,64,62,66,67,66,29,64
97,67,65,65,64,67,67,68,29,66
98,71,70,70,66,70,72,72,66,68
96,66,64,64,64,68,67,67,30,64
98,68,68,68,129,69,70,69,130,130
99,61,60,60,57,62,63,63,27,60
91,68,67,65,65,68,68,69,31,67
93,66,66,66,62,67,69,68,29,66
98,68,67,67,129,69,70,69,67,68
90,69,70,70,127,68,67,70,58,128
94,69,31,31,69,36,86,86,33,68
93,72,72,72,131,72,74,74,68,132
71,67,66,66,64,68,70,68,30,65
91,63,70,65,59,66,65,65,30,61
96,67,65,65,128,67,70,68,64,129
65,70,61,69,69,66,66,66,36,69
91,66,63,62,59,66,66,66,34,62
93,70,70,70,128,70,72,71,31,129
88,65,63,63,59,65,66,66,30,61
91,66,67,65,65,68,68,71,62,64
67,65,62,62,62,66,67,66,43,62
96,66,65,65,62,68,68,68,129,65
65,64,61,61,127,64,64,62,61,62
61,60,57,56,126,61,61,61,32,61
98,70,70,70,68,70,72,72,29,70
99,70,68,68,131,71,71,72,30,68
89,66,66,66,63,63,59,61,66,64
87,70,69,69,65,68,72,68,30,67
96,65,64,64,62,67,67,67,28,65
100,69,69,69,65,69,71,69,30,69
29,65,59,46,69,45,65,62,40,31
96,67,66,66,64,67,68,67,64,66
97,64,63,63,62,66,66,66,29,63
91,67,67,67,63,66,69,67,31,67
31,94,94,93,89,31,31,31,93,94
91,67,67,65,65,68,67,67,63,65
94,67,65,65,64,67,67,68,63,65
95,67,65,66,62,68,68,67,30,64
87,99,70,70,66,72,90,73,35,96
98,69,68,67,65,70,70,70,30,100
89,70,69,67,66,70,72,71,65,67
61,68,43,43,41,43,59,62,30,65
101,68,67,65,63,69,70,69,30,102
62,62,50,48,45,45,61,61,35,63
93,31,30,30,29,41,34,33,37,28
71,65,64,63,62,66,68,67,33,64
97,66,66,65,129,66,67,67,29,66
93,67,64,64,62,67,67,67,30,64
91,69,67,68,68,69,72,69,67,69
77,67,71,67,67,67,74,73,66,67
97,67,66,66,128,68,70,68,30,66
78,68,67,67,127,69,70,68,67,128
93,66,66,65,63,66,67,67,29,65
93,97,80,80,128,84,91,89,129,97
100,66,65,65,63,67,68,67,30,64
98,71,69,69,68,71,74,72,30,69
96,69,66,66,64,69,69,70,30,96
95,70,69,68,128,70,73,71,67,129
70,65,64,64,62,66,68,66,30,64
97,68,61,64,61,65,69,69,30,61
59,62,43,40,67,42,63,60,35,60
97,68,65,65,65,68,68,67,65,66
70,67,64,63,61,66,69,68,33,65
96,68,67,67,66,69,70,69,66,67
99,64,63,63,60,64,66,65,32,62
98,100,101,111,100,111,111,111,114,98
97,67,66,66,64,69,69,69,30,66
90,74,70,70,68,71,74,74,68,73
94,70,68,68,127,70,70,70,65,68
103,67,67,67,64,69,69,69,30,27
65,63,62,62,60,65,65,65,28,62
97,66,66,66,63,66,68,67,30,65
94,69,65,65,128,69,69,69,64,129
90,70,69,70,67,70,70,70,30,70
88,73,71,70,68,71,75,75,66,71
91,63,61,61,59,65,64,63,65,61
73,71,70,70,127,71,72,72,129,129
88,71,71,70,130,73,73,73,69,70
95,66,64,64,62,66,68,66,30,64
95,71,70,70,68,70,72,71,65,70
64,64,59,60,61,63,63,62,31,62
93,67,65,65,62,67,69,67,129,65
99,67,67,67,65,69,71,69,30,66
85,71,70,70,67,71,73,71,66,70
99,68,68,66,64,69,70,70,132,68
101,65,64,64,61,67,67,66,30,64
94,65,63,63,63,65,65,65,33,65
58,32,33,32,28,35,38,40,30,68
64,63,53,53,68,49,63,62,34,62
97,68,67,67,64,69,70,69,31,67
92,68,66,66,62,68,70,70,30,66
68,65,61,61,61,65,65,65,34,65
95,63,61,61,60,65,65,64,32,62
29,40,43,43,40,43,33,32,40,34
99,71,69,69,67,71,75,72,30,69
96,66,64,64,62,67,67,67,29,64
95,66,65,65,128,67,68,67,64,65
105,71,69,68,26,71,71,72,30,68
90,67,67,66,66,69,69,71,30,66
94,66,64,64,61,66,68,66,30,64
94,68,67,67,127,70,70,70,28,67
67,65,62,62,61,65,65,65,30,64
97,67,66,66,63,66,68,68,29,66
102,65,65,64,63,67,68,66,29,65
98,63,62,61,60,63,67,65,58,61
94,67,66,66,63,67,70,68,30,67
90,67,67,64,65,67,67,67,30,63
94,67,66,66,62,67,70,68,65,67
91,69,68,68,65,70,72,69,30,66
61,65,64,65,69,76,69,67,77,66
95,69,67,67,66,69,70,70,29,69
93,70,69,68,128,71,73,73,67,129
70,67,65,63,63,67,68,68,29,65
98,65,64,62,61,66,67,66,29,64
92,66,63,68,68,66,65,68,31,68
93,67,66,66,64,68,69,68,29,66
104,70,69,69,65,71,72,71,31,69
63,65,42,38,40,45,66,63,34,64
92,68,66,66,63,68,69,69,29,65
105,67,67,67,62,68,69,68,30,65
86,67,65,66,69,69,88,87,95,89
68,64,62,62,59,63,66,63,37,61
97,65,63,63,60,66,67,67,28,63
99,64,62,62,59,66,64,64,30,61
96,66,65,65,62,67,69,67,30,65
48,67,71,71,68,71,70,65,65,65
99,68,67,66,130,69,70,70,30,65
92,66,65,65,65,68,68,67,32,65
73,67,66,66,63,69,69,69,30,65
93,68,66,66,62,68,68,68,30,66
92,66,65,65,62,66,68,66,29,65
92,70,69,67,66,70,70,70,31,67
69,66,65,65,62,67,68,68,129,65
98,67,66,64,62,67,68,67,29,66
93,67,66,66,66,67,71,67,32,66
96,67,65,65,62,68,68,67,30,65
58,62,56,60,52,62,62,59,61,61
93,70,70,69,66,69,71,71,66,129
97,67,67,67,63,69,69,68,29,67
101,51,50,50,53,53,53,52,50,49
60,74,78,79,74,82,79,79,31,71
95,65,63,63,60,66,68,66,31,63
61,66,44,42,42,42,60,61,31,64
90,64,62,62,61,65,65,64,30,63
95,71,69,68,131,71,71,72,68,69
68,63,59,31,31,37,67,63,34,63
89,66,66,65,127,66,72,67,29,65
66,65,62,62,37,48,65,65,41,64
91,67,69,66,66,69,69,68,30,68
94,67,67,66,63,68,69,69,63,67
88,73,71,71,70,73,75,74,67,71
90,71,70,68,68,71,73,73,65,70
95,68,67,67,65,70,71,69,31,67
29,41,41,41,38,47,59,60,42,61
98,66,64,64,62,67,68,67,28,64
97,65,64,64,61,67,67,66,28,65
89,68,68,67,128,68,70,70,65,67
95,66,66,65,62,68,69,67,30,65
98,71,69,70,66,71,74,71,30,99
98,68,67,67,129,70,71,70,29,66
91,69,67,67,66,70,71,70,66,66
94,72,68,67,66,70,72,72,65,97
65,64,50,50,45,41,65,64,32,62
86,64,61,58,94,52,67,65,98,94
89,67,64,64,63,68,68,67,31,64
92,31,41,42,39,42,62,61,69,30
101,70,69,69,129,70,70,70,29,130
89,69,69,67,67,69,69,69,64,129
92,70,71,67,67,67,70,71,64,67
61,103,103,103,103,112,112,103,115,100
69,66,63,63,62,67,67,66,33,63
98,64,63,63,61,64,66,66,29,64
55,59,33,34,55,37,38,37,130,55
37,35,32,31,127,35,37,36,130,127
42,60,60,60,53,60,60,59,133,53
82,58,58,55,51,59,58,40,49,40
51,57,56,56,52,60,60,52,133,52
50,58,58,58,58,62,53,62,130,58
54,62,33,65,128,37,37,36,131,128
37,35,33,33,30,37,37,36,130,127
36,35,33,34,30,37,37,36,128,33
54,58,32,60,61,58,57,36,133,58
110,107,106,106,104,72,107,107,83,106
110,108,108,106,107,106,110,108,75,108
36,34,33,33,126,36,37,36,128,126
36,34,33,33,126,37,37,36,128,125
82,40,32,32,31,36,39,38,39,40
36,36,33,33,35,36,38,36,129,34
50,50,34,34,126,37,38,37,129,126
40,126,33,127,127,37,37,36,129,126
52,34,33,34,30,36,37,36,34,32
56,35,33,33,30,37,37,36,36,31
37,49,31,48,48,34,34,33,132,48
63,44,34,41,37,38,45,44,131,39
59,60,32,32,129,36,36,35,131,129
87,43,40,38,38,43,43,43,38,40
42,35,32,32,29,37,37,36,130,33
69,43,39,39,39,36,39,43,39,40
50,40,37,37,33,41,41,44,130,45
46,62,61,59,59,65,65,64,46,59
51,63,62,62,59,68,68,68,132,62
63,71,34,71,70,37,39,37,132,68
56,69,33,68,61,37,37,37,131,62
111,115,112,105,109,115,114,112,127,110
61,73,73,72,68,77,76,72,131,67
82,36,33,41,40,57,37,36,48,35
97,92,91,68,68,80,92,95,72,91
20,23,24,90,91,89,24,24,84,23
106,76,74,33,32,37,78,77,43,33
52,70,70,68,66,71,70,71,64,67
84,77,75,77,73,78,79,79,33,79
55,68,73,72,71,70,69,70,131,66
49,67,71,71,67,71,69,67,67,65
57,75,75,75,69,76,75,78,130,66
34,49,47,56,52,61,48,46,56,47
37,58,63,63,60,63,58,58,60,53
107,81,80,78,80,82,86,82,37,82
40,59,66,65,62,63,59,61,59,53
56,71,72,71,68,72,72,72,68,66
83,39,46,46,46,60,41,39,50,40
65,71,76,74,71,74,69,68,70,69
46,65,65,65,61,68,67,65,58,59
55,70,70,68,68,70,70,68,65,65
44,63,68,67,64,66,62,64,63,60
49,61,68,67,61,70,64,61,60,59
41,52,60,59,55,63,52,50,53,46
50,66,69,69,65,70,69,69,63,63
33,52,58,55,52,61,47,45,55,49
58,67,73,73,67,71,71,69,67,64
50,76,77,76,72,82,81,90,77,63
93,50,45,45,44,52,51,51,47,45
88,107,106,106,107,120,102,104,113,99
33,53,64,62,57,65,54,53,57,48
52,65,71,68,63,68,68,68,131,62
48,62,67,67,63,65,64,63,63,58
46,62,64,62,61,65,64,63,61,58
62,70,73,71,70,71,71,70,130,71
53,68,67,66,66,70,70,69,66,66
57,70,70,70,70,70,70,69,131,64
78,36,56,53,43,58,35,37,51,38
80,50,49,56,53,61,49,52,51,42
33,49,60,58,52,56,44,44,52,46
78,34,33,33,30,37,75,74,42,31
65,126,125,125,125,129,128,126,131,124
42,57,62,61,57,61,62,57,55,52
81,78,74,75,69,76,78,79,39,75
37,56,55,56,65,59,59,58,52,57
106,86,86,80,80,81,87,85,77,81
108,83,88,82,82,84,89,88,80,87
56,70,73,69,68,73,73,72,68,67
36,50,58,58,46,59,43,41,51,46
49,66,67,66,66,68,66,67,65,65
61,69,73,73,69,73,69,72,130,67
119,124,130,130,127,127,124,122,70,121
100,56,56,55,51,61,61,58,64,57
84,91,66,65,55,64,84,82,57,91
126,85,84,84,82,86,86,84,38,83
60,61,57,57,61,61,61,61,63,58
53,68,72,71,70,71,70,70,67,66
81,83,81,82,87,87,85,84,90,87
118,21,20,20,18,24,25,23,20,18
69,70,53,50,74,48,71,71,24,74
52,56,59,56,56,56,56,56,130,56
78,52,56,51,50,52,71,69,33,72
37,58,63,63,62,60,60,58,62,61
36,44,35,51,46,38,39,38,35,39
53,36,35,35,31,39,39,37,36,36
108,78,71,73,73,88,77,74,41,76
102,44,45,43,43,42,52,48,35,45
119,126,125,126,126,127,125,127,129,126
108,76,72,73,75,81,76,74,77,74
108,72,71,70,70,74,73,72,78,72
46,62,61,61,57,62,62,62,57,59
105,26,30,30,30,28,29,26,40,23
123,127,32,128,128,36,36,35,130,127
57,35,33,34,30,37,38,37,130,32
96,70,66,64,72,71,69,69,42,67
44,61,66,65,61,66,66,66,60,58
36,50,49,47,46,62,39,47,58,47
53,69,71,70,65,71,68,70,62,62
56,56,56,56,56,60,57,56,56,57
45,62,68,67,61,68,68,67,62,54
106,80,77,77,76,79,88,85,37,85
84,37,36,35,41,49,38,37,56,38
107,85,80,81,78,81,85,86,34,85
62,74,74,74,71,74,73,71,129,72
106,82,80,80,76,80,82,85,37,85
80,37,36,44,40,45,36,36,48,35
44,58,71,71,59,71,54,54,58,57
79,34,33,33,30,37,37,36,47,31
33,47,48,50,49,60,47,47,55,46
108,82,79,82,79,83,90,89,40,88
105,83,81,80,80,83,86,83,38,82
123,69,71,71,66,74,69,74,131,62
40,54,53,58,55,63,56,55,67,57
21,40,39,40,36,96,37,37,88,37
58,93,93,93,92,96,98,95,93,82
115,67,67,67,60,68,68,68,57,126
55,69,70,69,69,71,60,70,69,61
52,69,69,68,65,70,67,65,65,60
52,66,70,66,66,70,69,66,61,61
56,69,74,70,70,71,71,70,67,67
38,52,53,57,52,64,50,49,54,47
37,49,67,56,52,64,48,49,59,46
61,74,74,73,73,77,77,77,129,72
42,56,67,63,56,67,61,63,58,53
36,54,64,62,53,62,49,48,57,49
44,60,66,61,58,66,65,62,61,49
82,35,34,34,32,38,37,37,39,34
42,55,61,60,56,64,59,57,56,53
63,71,73,73,127,73,73,72,130,125
74,61,61,59,59,59,64,63,50,61
84,72,74,72,72,72,75,74,60,72
38,67,69,66,66,70,70,69,66,64
35,48,57,56,50,59,52,49,49,45
47,60,62,61,60,63,63,62,132,55
40,63,70,66,66,67,67,66,63,60
45,58,61,61,58,61,61,61,57,52
63,71,73,73,72,74,73,72,130,67
42,65,70,66,66,65,65,64,65,65
44,59,62,58,58,62,62,60,58,56
80,74,73,71,68,71,76,76,39,75
37,51,55,55,53,64,46,52,56,49
118,59,58,58,54,60,60,61,133,56
121,70,70,70,69,74,73,71,130,67
84,123,123,123,123,125,115,124,130,121
39,66,65,65,63,67,67,66,63,64
58,36,32,32,129,36,37,37,131,129
59,30,36,36,36,33,32,32,35,27
61,62,62,62,62,66,61,62,130,62
64,35,33,34,30,37,38,37,131,37
48,60,66,66,60,63,60,60,132,58
61,36,35,35,33,38,39,38,35,34
79,51,56,54,51,54,59,56,50,43
54,60,60,60,57,63,63,63,131,57
52,56,56,56,59,59,56,56,131,56
65,66,65,65,125,70,70,68,129,125
42,53,53,53,56,52,52,36,53,46
94,48,50,48,46,51,54,51,134,46
33,52,51,51,53,53,52,50,134,52
65,48,38,36,39,39,46,49,37,53
81,74,72,70,67,73,74,74,48,74
85,54,54,53,54,59,56,59,131,53
44,54,53,53,52,57,38,37,53,44
46,63,34,59,31,38,38,38,131,54
69,42,34,36,31,37,46,49,33,49
110,108,101,102,99,91,107,107,76,107
73,53,49,42,42,46,51,54,42,54
67,35,33,33,31,37,37,37,129,33
72,47,43,41,42,46,44,47,42,42
50,62,63,62,62,65,65,64,134,62
67,35,33,34,31,37,37,37,130,33
115,125,125,126,126,126,125,125,128,125
72,42,39,38,42,42,41,42,42,40
61,35,34,35,31,38,38,37,35,33
61,65,65,73,64,65,65,64,130,64
87,83,84,79,83,78,83,80,67,76
43,63,64,64,61,65,64,64,60,63
66,43,39,37,34,39,41,44,35,40
64,33,32,32,29,36,36,35,130,33
85,43,57,55,46,54,43,42,48,41
110,108,105,104,100,104,109,109,94,105
55,38,35,36,32,39,39,38,131,39
39,36,33,34,36,37,37,37,133,37
105,103,100,67,65,74,101,102,78,102
120,116,117,116,116,116,118,117,77,116
84,46,45,46,44,46,49,46,43,44
58,37,35,35,32,39,39,38,35,35
40,40,35,35,31,39,39,38,133,39
77,48,33,39,31,36,44,44,32,44
112,96,96,95,96,99,98,109,95,95
106,93,92,92,90,92,93,92,41,91
52,56,56,56,56,62,61,58,136,57
122,126,126,127,127,127,126,126,130,127
61,37,35,44,32,40,39,49,36,34
58,59,58,58,60,62,61,58,133,58
77,48,46,47,48,52,48,47,48,46
89,36,34,35,31,38,38,46,46,48
79,33,32,33,32,36,35,35,45,34
77,34,32,36,38,37,36,35,46,33
36,44,45,46,47,52,37,36,54,45
41,59,61,62,60,62,58,60,59,55
40,52,59,57,54,62,55,54,57,50
41,51,72,57,56,68,52,52,59,49
52,66,67,65,63,68,68,68,62,62
107,92,92,88,88,92,95,93,87,90
32,34,32,44,42,53,36,37,51,32
32,41,41,44,42,51,35,34,48,39
47,66,72,72,69,70,69,67,66,62
52,68,68,68,67,70,69,68,129,64
54,65,66,65,65,69,66,65,130,60
54,70,72,72,72,72,71,72,129,67
79,36,33,33,40,38,38,36,49,35
43,57,61,61,58,62,58,56,132,52
54,65,69,68,66,67,65,66,130,60
59,68,69,68,69,71,71,69,130,68
124,80,75,75,75,79,79,80,35,77
84,44,118,48,47,54,43,42,57,42
44,61,68,67,56,64,64,63,61,55
79,39,32,39,41,43,36,35,45,39
45,55,66,61,56,66,55,54,59,54
46,53,65,65,54,56,56,66,48,49
55,55,56,55,127,56,56,56,129,127
46,58,58,58,56,61,58,57,131,57
49,67,68,67,67,67,64,67,128,63
122,98,102,98,128,101,102,100,130,128
59,41,38,37,32,41,40,38,60,61
53,53,37,37,34,45,44,46,53,53
122,131,131,131,130,131,130,131,133,131
43,58,57,57,58,59,58,58,57,55
48,57,62,60,57,62,65,62,132,57
60,60,60,60,126,64,64,63,128,126
61,65,65,65,65,65,65,65,130,61
103,92,92,92,92,91,92,92,40,93
59,67,67,67,67,70,70,70,130,66
54,35,34,34,34,37,38,37,130,34
103,91,90,87,87,95,94,91,45,91
48,37,35,35,34,39,43,39,34,34
83,50,33,33,33,36,52,50,33,49
91,96,104,37,100,45,87,91,52,93
70,83,87,87,83,91,91,98,81,81
36,35,33,34,30,36,37,36,130,35
110,48,32,41,49,47,43,46,48,48
113,111,110,107,107,106,111,110,78,110
70,32,30,38,37,34,34,33,36,38
47,54,54,54,130,52,54,52,132,53
54,36,35,35,32,38,39,38,130,34
89,34,32,32,29,36,36,35,37,31
49,36,34,35,31,39,39,38,34,33
37,105,33,49,130,37,37,36,132,130
48,61,61,61,59,61,61,63,133,58
80,80,77,80,80,80,80,81,89,84
25,138,118,138,133,122,123,122,138,123
52,64,66,66,63,66,66,65,60,60
45,65,64,70,64,69,68,60,70,62
53,69,69,69,67,70,67,69,66,67
50,65,67,67,64,70,67,67,64,61
54,66,65,65,68,69,65,63,60,59
44,61,61,59,56,61,61,59,55,55
107,102,88,83,82,78,104,102,42,107
88,118,117,118,118,118,116,114,125,118
42,55,60,57,56,61,41,43,57,48
58,72,71,71,67,73,73,73,127,68
49,63,67,67,61,67,66,65,60,60
40,58,67,66,61,66,57,55,61,52
38,55,61,61,56,61,58,53,53,51
51,67,66,66,65,68,66,68,131,64
48,63,63,63,63,64,63,63,62,62
123,106,102,100,100,98,106,106,41,106
78,68,67,67,63,65,73,73,40,69
102,54,57,55,49,57,66,66,48,46
60,70,71,71,126,70,70,70,129,65
112,102,100,100,99,100,104,103,47,100
108,98,97,98,98,96,98,98,35,98
81,40,38,39,39,42,42,40,48,41
106,95,91,91,88,91,95,96,39,90
37,61,66,66,61,66,53,53,63,54
59,69,72,72,69,72,72,69,129,68
42,56,63,60,56,64,59,55,60,51
34,40,45,45,43,59,40,37,49,40
104,82,79,78,77,78,82,83,33,78
61,72,71,73,68,74,74,74,129,68
79,36,34,34,33,38,38,37,43,34
33,45,60,53,46,57,36,39,52,43
47,65,65,65,63,68,67,66,63,63
45,67,68,67,67,69,65,63,66,59
113,88,89,88,84,87,89,89,81,83
81,71,70,71,71,71,73,71,140,70
44,21,41,20,18,24,24,23,23,19
117,75,74,74,71,77,76,76,36,74
118,122,99,95,91,98,116,116,59,122
77,50,51,51,47,55,44,46,46,46
51,68,72,73,68,73,68,67,68,63
82,67,82,66,60,58,74,70,66,82
99,99,100,100,95,139,95,95,129,100
51,46,36,35,34,39,43,46,35,47
57,69,69,69,64,72,72,69,131,64
47,64,65,64,61,68,64,66,60,61
73,69,67,67,64,70,70,70,36,67
44,59,65,63,61,63,60,60,60,56
40,53,62,58,57,63,52,63,53,49
110,94,93,89,89,92,97,94,41,93
44,65,66,66,65,66,70,66,62,56
77,38,34,37,44,57,41,37,49,38
53,67,67,67,67,71,66,70,66,65
62,70,73,73,70,72,72,71,131,71
46,67,68,67,62,69,68,68,68,54
52,66,68,65,65,67,67,65,63,62
77,33,32,32,29,35,73,72,40,31
92,59,60,59,58,63,66,66,134,56
64,69,71,70,67,69,69,70,130,66
83,40,35,42,43,47,40,41,55,44
52,66,68,66,63,69,69,67,62,62
34,40,38,41,41,59,37,41,49,40
107,96,96,96,89,95,101,97,40,96
38,64,65,64,61,66,60,63,61,54
39,50,60,59,53,62,43,42,56,46
109,92,92,88,88,88,94,92,80,92
77,36,33,39,36,37,37,36,43,38
49,66,66,65,62,66,69,67,61,62
82,44,64,43,40,49,41,43,44,42
54,66,68,67,63,68,72,69,63,58
40,62,68,68,64,64,62,62,62,59
39,50,64,54,51,62,38,49,54,52
39,48,64,63,51,59,39,38,48,48
107,94,94,82,87,87,95,95,34,83
41,50,39,58,55,63,40,42,52,47
76,35,32,32,35,36,36,35,41,33
60,68,70,69,66,73,73,72,128,65
75,66,62,33,31,36,69,66,39,66
54,57,58,57,54,59,59,59,113,54
82,63,69,58,62,55,61,64,51,60
106,85,84,82,78,82,87,87,39,87
48,70,69,73,65,73,68,73,67,61
83,35,33,41,37,45,37,37,49,33
77,34,32,32,32,36,36,35,42,33
46,60,66,65,62,65,62,61,61,56
78,77,73,73,123,77,77,74,39,73
82,37,35,36,36,39,40,38,50,41
100,122,122,123,122,123,122,120,130,123
55,69,72,68,68,71,71,70,130,67
41,66,67,66,66,67,67,66,61,61
78,33,32,32,32,36,36,35,42,33
45,63,68,63,64,66,60,59,60,54
47,64,67,65,64,68,68,65,62,58
38,51,60,58,54,63,49,58,58,46
79,35,33,34,32,37,37,36,41,34
56,71,71,71,67,72,72,71,131,67
91,52,63,62,56,61,55,53,56,50
42,60,67,66,60,67,59,62,59,57
83,67,69,66,66,64,69,69,50,45
79,72,68,67,64,37,73,73,38,72
109,81,77,78,78,82,81,85,37,78
41,53,52,55,54,63,41,37,56,50
81,37,33,42,46,58,37,36,53,39
36,50,55,54,50,62,38,37,54,45
31,42,51,51,44,52,45,44,44,39
36,49,49,51,49,61,37,49,52,47
39,64,71,71,65,70,67,65,64,61
42,63,72,71,67,68,65,64,63,61
107,81,80,78,78,82,87,85,39,80
125,126,125,126,28,129,129,128,31,123
34,52,55,52,52,59,47,52,54,49
41,55,62,62,58,66,54,52,57,53
42,56,59,58,56,62,59,58,52,53
55,71,71,71,71,75,75,72,70,69
47,65,69,68,65,69,68,67,64,62
38,49,49,49,49,61,42,48,51,48
42,62,70,69,62,70,65,62,62,60
45,68,69,67,67,71,69,68,67,62
54,72,71,69,68,73,71,69,69,69
40,54,53,52,51,59,38,37,56,50
42,59,66,66,63,67,63,61,63,57
37,50,68,64,54,64,48,48,51,48
48,68,70,70,67,73,67,70,66,66
42,66,66,66,65,70,70,66,66,64
36,55,62,62,58,66,49,51,59,53
51,55,59,55,55,58,56,56,114,54
80,57,44,61,61,44,56,55,60,62
59,68,70,68,68,71,71,69,67,68
108,99,85,84,80,79,99,96,39,104
41,70,74,69,70,70,74,74,69,70
117,68,74,72,129,77,78,77,131,127
47,59,66,66,59,64,59,63,60,54
44,57,77,68,63,72,57,57,69,59
108,86,83,83,83,86,91,94,36,82
49,58,81,62,58,75,54,60,64,57
62,74,78,76,74,77,77,76,129,70
37,40,46,47,47,51,40,41,55,44
43,57,69,69,62,71,59,58,62,54
39,53,53,53,52,56,53,53,50,50
41,53,54,53,49,53,54,54,46,47
46,59,73,70,62,69,58,56,64,56
51,64,70,70,64,71,67,66,63,61
35,47,47,47,47,63,38,44,53,45
43,59,64,62,59,66,55,55,56,53
35,39,38,46,43,58,38,37,51,38
75,33,31,31,30,35,35,34,38,31
72,21,20,20,19,49,24,23,24,21
35,48,47,47,51,62,39,48,55,46
40,45,37,37,48,65,43,42,56,43
79,73,71,71,69,73,75,75,42,73
35,46,66,59,49,57,46,48,53,44
36,51,64,63,54,63,52,51,58,46
50,59,59,57,57,59,60,60,56,55
81,66,65,41,61,56,69,65,45,43
83,34,60,33,33,45,41,39,34,35
52,65,70,69,66,67,64,73,64,57
39,52,67,63,56,65,52,51,59,51
38,60,62,61,60,65,53,53,56,55
50,74,73,73,68,74,73,75,68,70
108,99,97,90,89,86,105,105,81,99
57,74,74,74,72,75,74,74,70,70
51,56,56,56,51,56,56,57,113,51
51,65,75,73,62,71,70,73,61,58
40,49,35,64,52,64,45,47,53,50
41,53,71,59,55,65,51,54,60,51
35,49,48,49,48,60,45,48,54,47
74,32,30,31,27,34,34,33,37,29
78,33,32,32,31,36,36,35,41,32
61,76,76,77,74,79,76,77,130,73
42,42,39,47,46,55,41,42,53,45
44,55,70,67,58,70,53,55,61,53
49,61,76,71,65,72,60,62,67,59
44,58,67,66,62,71,55,54,64,54
80,34,33,33,33,38,36,36,43,35
47,70,72,72,69,72,70,72,67,67
57,71,70,71,72,74,74,72,71,71
58,75,75,75,71,78,78,78,70,67
115,66,63,30,29,34,68,66,42,65
78,33,31,35,34,35,35,34,41,31
48,62,71,66,65,70,62,63,65,58
81,42,33,42,43,46,39,37,53,41
42,52,63,63,56,65,53,50,56,50
36,49,59,59,52,60,51,51,52,46
36,47,48,51,50,67,38,37,57,48
41,63,76,72,63,74,59,58,65,60
57,74,76,76,71,76,76,76,71,66
42,54,58,63,56,68,53,56,60,52
38,54,60,60,58,60,59,56,56,52
83,34,39,40,39,39,37,36,48,33
72,31,30,30,26,34,33,33,35,28
79,75,73,73,68,37,77,77,42,73
46,59,76,72,64,75,62,61,66,57
41,60,59,60,59,71,57,56,62,54
40,50,52,52,49,65,45,51,54,49
52,67,73,66,71,76,70,69,67,66
37,46,50,51,51,62,47,45,54,46
103,96,96,95,92,96,99,99,35,96
86,79,78,78,76,79,83,82,44,79
115,70,77,72,66,73,71,72,123,65
106,95,94,94,91,94,97,97,31,94
46,60,65,65,59,68,65,65,61,56
108,90,89,87,84,87,90,92,33,87
106,88,86,86,83,86,89,89,34,86
47,60,74,70,61,70,63,59,66,57
39,54,58,64,56,70,58,55,65,52
45,56,75,62,58,67,59,58,63,53
37,49,48,49,51,60,47,45,59,47
34,40,39,46,42,50,39,41,48,38
56,68,78,73,65,75,70,69,68,64
53,68,73,73,65,73,72,71,65,64
46,55,57,57,55,62,56,56,59,55
48,63,63,63,59,70,66,62,64,60
37,48,48,49,48,53,49,47,55,46
33,42,44,45,44,46,41,40,50,42
74,47,46,54,54,54,50,48,48,46
52,64,64,64,64,68,69,68,132,64
52,69,69,68,68,69,68,67,131,67
49,63,62,62,63,66,65,65,132,62
53,65,65,65,66,69,69,68,132,64
53,61,65,65,61,63,52,71,59,59
57,64,64,64,64,64,64,64,132,58
80,48,58,55,52,59,49,47,55,43
37,64,63,49,67,67,67,65,65,65
41,56,63,53,52,64,58,58,53,54
63,36,33,33,32,37,38,37,132,34
50,92,91,92,89,95,89,88,135,89
50,69,67,66,72,72,71,70,130,66
111,106,104,105,105,105,107,106,75,106
47,54,60,59,55,64,64,65,54,48
38,37,34,34,32,38,39,38,131,34
48,36,34,33,32,37,39,36,130,34
51,60,33,35,61,37,39,37,133,61
60,37,34,35,32,38,39,38,131,34
93,34,33,33,32,35,36,36,132,33
35,35,32,32,29,36,36,35,127,124
71,35,33,33,30,37,38,36,33,35
48,37,33,33,31,37,37,37,33,32
39,34,32,33,30,35,37,35,132,34
95,41,34,35,33,38,42,38,135,34
37,37,34,34,124,38,38,37,127,125
72,49,32,52,52,51,50,41,52,44
48,37,35,36,33,38,38,37,130,35
112,83,82,80,85,85,83,83,45,45
56,37,36,37,32,39,40,38,37,39
54,55,32,32,30,36,38,36,130,55
36,35,33,33,30,36,37,36,127,124
50,58,34,35,31,38,39,41,58,58
54,35,34,34,34,38,42,37,34,34
63,126,33,127,127,37,38,37,129,127
109,106,106,67,105,69,70,106,79,105
36,127,33,127,127,36,38,36,129,126
52,36,34,35,31,38,38,38,132,33
80,40,33,39,32,37,40,40,40,40
41,37,36,36,32,40,40,39,132,36
42,36,34,34,31,38,38,37,133,131
35,35,34,34,32,37,38,37,133,35
45,35,33,33,30,36,36,36,130,128
36,34,32,32,28,36,36,35,123,32
44,127,33,33,127,38,38,37,129,127
109,76,104,73,72,77,76,75,86,74
50,36,33,33,31,37,38,37,130,33
60,46,41,40,37,41,46,46,35,46
104,110,110,111,110,111,110,110,114,110
40,55,33,62,62,62,37,36,131,52
41,57,56,55,55,57,57,60,134,55
59,40,36,36,32,40,40,39,131,66
56,65,32,65,128,36,37,36,130,128
89,59,60,57,56,61,61,60,132,56
128,37,34,34,32,38,38,37,130,128
124,128,33,128,128,37,38,128,130,128
121,126,33,127,127,126,125,127,129,127
75,42,39,38,38,41,42,44,34,39
34,34,32,33,30,36,37,35,131,32
44,35,33,34,31,37,38,36,130,32
38,37,34,34,32,38,40,38,130,39
55,36,34,35,31,38,38,37,130,33
55,67,67,67,63,68,67,68,134,61
37,60,58,63,65,59,36,62,68,34
60,78,76,75,79,80,78,75,75,74
88,113,123,124,123,130,114,113,126,111
49,63,65,66,63,65,65,64,129,60
122,33,77,78,36,81,81,79,46,34
60,74,75,75,71,75,73,75,128,65
46,64,65,67,60,68,66,61,62,57
58,72,74,71,70,75,75,74,68,68
57,74,73,74,70,75,74,75,129,68
89,80,76,33,32,36,82,81,40,93
51,70,73,70,70,73,73,71,69,60
55,71,73,72,67,73,72,72,68,65
43,63,66,65,62,67,66,64,61,60
59,72,72,71,71,73,73,72,70,70
108,88,87,88,89,84,93,90,35,89
57,70,73,69,69,73,73,72,69,67
58,71,72,72,72,73,73,72,130,69
40,56,66,66,60,68,58,55,62,55
55,71,74,74,70,73,73,70,69,65
56,70,70,70,70,73,73,72,69,66
64,71,76,75,72,74,73,72,127,73
55,72,72,72,67,74,74,73,67,68
50,68,74,72,69,69,68,69,68,66
54,67,70,67,67,71,70,69,131,64
48,62,65,65,61,70,65,64,66,58
53,71,71,71,68,72,71,73,67,65
49,68,72,71,68,71,71,70,67,61
46,59,69,66,59,69,64,61,62,56
36,46,47,47,47,62,42,46,55,45
56,69,71,69,69,72,72,71,68,66
52,64,72,71,68,75,65,67,63,63
108,94,93,87,83,86,97,99,80,94
49,65,71,68,64,71,71,70,65,58
51,66,72,69,68,70,71,69,66,60
56,71,71,71,68,72,71,71,68,68
45,64,66,65,60,67,62,66,63,57
49,71,71,71,68,72,71,71,68,62
107,94,94,88,88,87,94,94,78,90
33,54,61,60,57,59,55,57,56,49
49,68,68,68,68,70,65,67,63,60
34,38,33,37,41,42,37,36,50,36
55,68,72,72,67,72,71,71,131,65
44,61,68,67,64,71,62,60,62,56
47,66,69,66,64,69,69,67,64,57
33,39,43,44,42,47,43,41,49,38
43,62,70,70,66,70,63,61,66,59
47,61,69,69,66,71,65,63,65,58
55,65,73,73,69,73,69,67,70,62
36,49,47,54,50,60,48,50,53,45
40,48,52,52,51,63,50,49,57,50
103,86,86,84,80,83,87,85,35,84
129,44,35,36,35,39,44,40,131,61
126,34,33,33,30,35,36,34,134,32
67,58,58,58,49,46,58,61,46,61
70,39,32,32,29,36,39,35,37,37
106,74,71,71,75,91,74,74,81,72
53,36,34,35,31,38,38,37,35,34
113,125,127,128,128,128,127,128,131,124
114,93,90,93,96,94,95,94,47,95
63,46,40,39,39,40,46,45,39,43
65,39,36,36,32,40,39,37,36,38
40,34,33,33,29,36,37,36,130,32
89,128,95,129,129,129,93,95,131,129
41,38,36,37,33,40,40,40,130,36
51,36,35,35,32,38,39,38,131,34
47,49,34,48,127,38,40,39,130,128
67,128,128,128,128,128,64,128,130,128
37,51,34,34,51,38,39,38,130,34
50,63,65,63,63,62,62,60,63,63
50,39,35,35,34,39,41,40,128,36
52,64,35,36,33,38,41,39,131,61
89,97,101,100,97,99,100,98,130,94
109,72,70,68,72,73,71,73,76,71
86,63,65,61,60,61,66,64,51,61
104,84,74,72,73,71,82,84,56,89
107,80,76,77,77,85,80,79,77,77
90,97,84,103,100,108,89,91,106,95
59,127,67,127,127,65,62,62,129,126
22,28,34,35,27,35,35,32,35,25
65,73,81,81,73,82,82,86,72,71
59,68,70,70,67,71,70,70,129,65
32,43,55,53,50,58,46,45,50,40
39,59,58,58,59,61,61,60,58,56
43,63,66,65,65,67,65,64,64,60
49,67,67,67,63,69,69,68,64,65
42,61,61,61,58,63,60,58,58,53
80,74,70,32,28,35,74,74,39,74
54,66,68,66,66,69,69,68,130,63
45,59,64,64,60,67,60,58,57,56
62,71,72,71,71,73,73,72,130,70
84,39,36,36,47,55,39,41,54,36
53,69,74,70,70,70,69,69,130,66
69,131,131,131,131,131,44,65,133,130
126,127,124,126,130,130,129,126,133,128
93,111,108,107,113,114,112,111,118,108
76,42,32,36,46,36,41,43,46,45
49,63,35,62,64,65,39,64,62,63
40,58,63,58,59,61,61,58,58,58
35,60,62,63,59,63,54,53,59,53
51,68,68,68,64,69,69,68,68,68
73,33,31,32,33,37,36,34,40,35
41,60,66,63,62,65,59,62,57,52
40,60,65,62,61,63,54,54,55,54
41,60,64,63,57,64,63,60,56,54
51,67,66,66,64,70,70,66,130,64
104,121,122,122,121,122,121,122,130,121
40,64,64,64,64,66,63,59,62,55
52,64,64,64,59,65,64,64,130,58
84,40,36,48,47,62,40,42,55,44
56,70,70,69,64,72,72,70,130,59
44,61,65,63,63,63,63,62,63,59
38,46,33,50,49,61,37,42,54,43
62,71,70,70,70,73,73,72,128,68
86,46,35,36,31,38,46,46,36,52
125,35,33,33,30,36,37,36,132,130
75,45,56,50,49,55,74,46,49,42
79,41,33,49,49,44,38,38,47,40
80,34,33,33,33,37,37,36,47,35
122,80,79,79,77,80,80,81,33,122
38,49,48,48,52,62,43,47,57,47
42,54,55,56,56,71,56,56,61,53
35,43,43,47,45,47,37,36,50,41
46,58,57,59,56,72,56,57,62,56
37,49,51,51,49,56,49,51,55,50
58,67,78,74,67,77,71,74,68,64
69,66,63,30,26,33,67,66,31,28
38,40,39,40,40,43,43,41,55,38
38,49,49,50,46,54,42,44,56,46
38,39,37,36,39,43,38,40,51,38
42,50,50,53,52,58,47,44,60,48
35,37,33,36,38,37,36,36,49,38
75,33,31,32,28,35,35,34,42,32
36,51,51,53,52,64,52,52,53,51
55,71,75,75,71,76,75,77,129,65
45,64,66,65,64,72,65,64,69,62
46,60,67,64,60,68,68,67,61,55
48,63,72,70,66,74,64,64,65,60
77,33,32,33,30,35,35,34,39,32
33,36,33,37,37,37,37,36,47,38
81,33,32,33,31,36,36,35,38,32
86,41,41,39,38,41,43,40,46,40
36,43,41,40,44,46,44,43,52,40
53,69,75,71,68,75,69,71,71,66
35,43,33,50,47,61,37,36,53,41
44,57,59,60,58,70,57,56,63,54
75,64,58,56,58,56,67,64,35,64
79,64,62,60,60,53,66,66,42,63
61,60,56,56,123,44,60,60,33,60
110,39,59,60,60,42,38,36,64,38
52,55,63,63,59,63,50,48,67,56
92,86,82,80,81,86,89,87,58,86
57,54,54,51,116,54,54,54,28,54
97,29,28,30,30,30,31,31,33,30
46,60,59,64,63,63,62,64,64,58
49,51,33,33,57,36,36,36,52,47
52,57,57,57,131,58,56,52,132,129
61,67,67,130,129,70,70,69,132,130
67,94,108,112,103,113,97,95,124,94
56,63,64,63,63,63,62,63,130,59
66,126,32,126,126,70,36,69,129,126
50,66,67,67,62,68,67,67,62,58
41,65,66,66,65,67,67,66,62,60
48,66,71,66,66,69,69,67,63,63
38,55,67,55,55,66,54,53,57,53
34,46,54,53,49,60,37,40,54,44
52,66,67,67,66,67,67,67,63,61
55,67,68,68,62,70,70,69,130,60
39,50,55,55,50,54,52,55,50,47
54,71,75,73,70,75,75,73,69,69
52,70,69,74,65,73,73,72,82,66
70,70,69,70,66,76,71,71,78,67
108,69,103,68,64,71,108,108,68,66
131,126,125,125,122,126,129,129,90,125
77,79,77,77,76,81,81,80,88,78
43,50,51,50,50,51,51,51,93,50
77,34,34,33,32,36,36,35,40,34
63,48,47,47,43,50,51,50,74,45
100,91,90,90,87,90,96,95,90,90
96,109,108,108,104,112,107,105,109,106
54,55,53,49,48,68,56,54,57,54
48,61,68,68,64,68,64,69,64,57
118,65,65,65,60,67,67,66,125,60
37,40,32,44,43,48,36,38,51,39
115,122,122,129,44,56,130,129,132,43
90,44,42,40,43,46,46,43,51,44
50,61,74,66,61,72,63,62,63,57
83,34,33,33,30,37,37,36,43,31
35,46,45,49,48,62,46,48,53,44
41,49,52,53,53,56,50,48,59,51
108,84,86,84,81,87,89,89,116,80
129,68,69,66,68,65,68,68,52,129
45,54,54,55,54,63,50,53,60,52
44,55,56,56,54,60,54,53,63,54
43,61,68,65,57,65,61,60,61,55
54,68,73,72,63,72,71,70,67,61
43,56,70,58,55,67,57,57,60,53
53,67,71,69,66,71,71,68,130,63
41,49,53,53,49,63,45,51,56,47
53,64,74,72,67,72,69,66,64,61
36,48,51,51,50,52,38,37,56,45
37,49,49,50,48,63,51,51,53,48
42,52,52,52,51,66,53,54,58,52
37,39,33,36,43,42,41,36,52,39
37,48,50,51,51,56,51,50,59,49
51,64,68,68,61,69,68,68,60,57
49,65,69,69,65,70,68,70,65,59
43,59,72,61,59,72,61,60,62,59
53,67,73,73,68,76,65,68,67,62
46,59,76,68,60,72,61,59,64,56
56,58,68,66,62,72,60,60,67,62
37,53,52,52,52,56,49,51,58,50
81,33,32,32,29,38,37,36,44,31
56,68,70,69,66,70,70,69,130,65
41,60,64,63,61,66,60,63,60,60
76,38,36,37,42,46,40,39,48,39
60,65,65,65,63,65,65,64,129,65
64,96,95,90,91,93,94,93,90,93
96,112,111,112,104,113,112,113,124,102
110,124,133,128,128,126,136,136,124,120
112,41,48,48,44,49,40,38,40,39
51,64,68,67,63,68,68,67,61,61
41,60,68,68,60,68,62,59,59,58
81,71,67,67,29,35,75,72,42,72
64,69,69,69,69,73,68,72,130,67
76,33,32,32,32,36,36,35,37,34
87,87,87,87,83,87,87,87,89,85
54,122,121,121,121,133,122,122,124,122
64,69,69,129,128,72,69,70,131,129
124,129,129,130,130,129,128,126,132,129
46,63,69,67,64,63,60,58,55,55
114,36,35,35,32,39,39,38,37,33
38,43,51,50,49,58,42,39,53,39
77,34,32,33,34,36,36,35,43,32
35,40,34,43,43,54,38,37,53,41
114,75,73,72,72,77,77,77,72,73
118,72,71,71,68,75,75,74,79,69
137,23,22,22,18,26,26,25,22,20
56,29,28,28,26,38,32,31,31,27
75,83,60,58,58,58,73,68,123,83
96,30,29,29,29,33,33,32,38,30
94,83,80,33,29,36,83,84,38,31
133,134,133,134,131,135,135,134,139,134
82,80,78,77,73,79,81,79,73,78
87,81,79,79,75,81,84,82,76,81
94,105,103,109,107,118,96,105,120,100
85,40,37,37,40,40,40,40,49,39
55,69,75,73,70,77,73,77,70,65
60,73,74,73,73,74,73,74,129,69
72,32,31,31,28,35,71,72,38,30
43,56,57,58,55,66,60,58,58,54
39,58,57,64,57,64,55,54,58,55
39,53,53,60,58,66,54,52,63,50
34,37,36,35,37,39,37,36,48,35
39,46,45,50,47,62,45,48,54,45
47,61,72,69,59,68,62,63,63,58
34,46,45,51,51,59,47,44,54,43
40,47,46,52,51,60,47,46,57,49
77,32,31,30,27,34,75,33,37,29
77,33,31,32,28,35,35,34,42,30
44,59,71,70,59,70,56,59,61,56
121,123,124,36,123,38,125,124,41,122
50,65,65,64,65,67,66,66,132,64
