0,1,2,3,4,5,6,7,8,9
0.9226564764976501,0.9703582525253296,0.7192546725273132,0.9164561629295349,0.7496595978736877,1.318056344985962,1.2160799503326416,1.0731420516967773,1.2814229726791382,0.9671719670295715
0.7098146677017212,1.0609246492385864,0.8706284165382385,1.039529800415039,0.7914884686470032,1.4553565979003906,1.2622770071029663,1.1218340396881104,1.3508071899414062,1.0313431024551392
0.4517900049686432,1.0796140432357788,1.1724873781204224,1.2893502712249756,1.0798815488815308,1.6171897649765015,1.2163547277450562,1.1538554430007935,2.0774056911468506,0.96129310131073
0.5753416419029236,1.1837708950042725,1.4073306322097778,1.3266702890396118,0.9209234714508057,1.7517716884613037,1.4508638381958008,1.3467330932617188,1.1326032876968384,0.8229137063026428
0.3742200434207916,0.7439842820167542,0.8258145451545715,0.9247923493385315,0.7228617072105408,1.2613023519515991,0.9590405225753784,0.8632968068122864,1.8778589963912964,0.6998236775398254
1.0037932395935059,1.1157763004302979,0.8588942885398865,0.9516578316688538,0.5631394982337952,1.2232763767242432,1.3152787685394287,1.1926846504211426,1.9896090030670166,1.2010592222213745
0.8123388886451721,0.4825567901134491,0.3045579791069031,0.5008268356323242,0.41182056069374084,0.6584070920944214,0.6982346177101135,0.5621321201324463,1.2658584117889404,0.6752942204475403
0.5561821460723877,0.5448249578475952,0.7820135951042175,0.6657518148422241,0.3526638448238373,0.8958467841148376,0.8123829960823059,0.6999614238739014,0.9809158444404602,0.4255730211734772
0.40923067927360535,0.38697779178619385,0.45631086826324463,0.5320773124694824,0.31353339552879333,0.7703283429145813,0.7196896076202393,0.6409239172935486,1.6394909620285034,0.425592303276062
0.419166624546051,0.6815944314002991,0.7460525631904602,0.8670287728309631,0.6417515277862549,1.2172670364379883,0.9287552237510681,0.8745153546333313,1.637986183166504,0.6202874183654785
1.0079706907272339,0.667008638381958,0.4868972897529602,0.6560806035995483,0.5643334984779358,1.025413990020752,0.8126755952835083,0.7382487654685974,1.2788944244384766,0.748026967048645
0.5246256589889526,0.33597368001937866,0.3827083706855774,0.427915096282959,0.17541363835334778,0.6015738844871521,0.555219829082489,0.49100297689437866,1.5073981285095215,0.3523128032684326
0.7356589436531067,0.37102532386779785,0.44387704133987427,0.5312638282775879,0.37477409839630127,0.7722893357276917,0.6055954694747925,0.5152159929275513,1.6910003423690796,0.41852474212646484
0.5436882972717285,0.4410475194454193,0.6146447658538818,0.515060544013977,0.2340145707130432,0.5265483856201172,0.6916890144348145,0.6152339577674866,1.1558583974838257,0.39466923475265503
0.7668411731719971,0.7505238056182861,0.4761640131473541,0.5456531643867493,0.5074368119239807,0.9183167219161987,0.9174948334693909,0.8115051984786987,1.319502353668213,0.8607925772666931
0.9833099246025085,0.7615016102790833,0.46291983127593994,0.5738867521286011,0.49620792269706726,0.922767698764801,0.981532633304596,0.8776882886886597,1.8267338275909424,0.8580251932144165
1.0471848249435425,1.017209768295288,0.7033794522285461,0.793607771396637,0.5746222138404846,1.105316162109375,1.1937828063964844,1.1217235326766968,1.9634581804275513,1.1094067096710205
1.604107141494751,1.5892235040664673,1.2393171787261963,1.387916088104248,0.4026511311531067,1.9441368579864502,1.8852940797805786,1.7583513259887695,2.2946879863739014,1.0903513431549072
0.558259904384613,0.7954026460647583,0.788995087146759,0.7482984066009521,0.4836905300617218,0.6745501160621643,1.1518380641937256,1.0364793539047241,1.2392754554748535,0.4972512722015381
1.0794271230697632,0.4034681022167206,0.300283282995224,0.4664015471935272,0.3724873661994934,0.6649609208106995,0.5884811282157898,0.529425323009491,1.5441997051239014,0.6206796765327454
0.38973286747932434,0.5388984680175781,0.637864887714386,0.5549765825271606,0.27117443084716797,0.7827080488204956,0.8901128768920898,0.7737600207328796,0.9375276565551758,0.43619439005851746
0.5650127530097961,0.727819561958313,0.7241857051849365,0.7917170524597168,0.7399886846542358,1.1257843971252441,0.8382328152656555,0.756486177444458,1.2704055309295654,0.75184565782547
0.8365134000778198,0.7305852770805359,0.545882523059845,0.6643076539039612,0.6110420227050781,0.8003475666046143,0.8040663003921509,0.7522149085998535,1.156984806060791,0.8232758045196533
0.7550181150436401,0.5515117645263672,0.302921324968338,0.4983142018318176,0.36942997574806213,0.7097584009170532,0.7941528558731079,0.6437682509422302,0.7927024960517883,0.36632612347602844
0.7919202446937561,0.7710237503051758,0.5000306367874146,0.6359637379646301,0.5295728445053101,0.8829637169837952,0.9522024393081665,0.8726442456245422,1.8660868406295776,0.918879508972168
0.9007427096366882,1.81671941280365,1.6018500328063965,1.7175803184509277,1.205990195274353,2.35280442237854,2.231879472732544,2.1157078742980957,2.0753908157348633,1.394561767578125
1.5538352727890015,0.9719635844230652,0.8500125408172607,0.7927118539810181,0.6625125408172607,1.1191015243530273,1.0878418684005737,0.9492129683494568,1.114206314086914,0.6236028671264648
0.38157328963279724,0.536988377571106,0.6350378394126892,0.5711801648139954,0.29040491580963135,0.49644050002098083,0.8736429214477539,0.7812511324882507,1.2528016567230225,0.39147162437438965
0.47519925236701965,0.5581212043762207,0.48063650727272034,0.5932943820953369,0.4849641025066376,0.8004508018493652,0.6822921633720398,0.5863580107688904,1.711736798286438,0.5327738523483276
1.0918231010437012,0.9866527318954468,0.696868360042572,0.802749514579773,0.30781638622283936,1.1798162460327148,1.1958813667297363,1.07643723487854,2.0028164386749268,0.8759507536888123
0.8240201473236084,1.110671043395996,0.7874605059623718,0.9149324297904968,0.35733434557914734,1.2393691539764404,1.317044734954834,1.241663932800293,1.605486273765564,1.0089346170425415
0.8629856705665588,0.2505931258201599,0.29033154249191284,0.3788692355155945,0.32225561141967773,0.5694022178649902,0.3782893717288971,0.3116324245929718,1.5631577968597412,0.44735416769981384
0.5574538111686707,0.8120580911636353,0.8748648762702942,1.0054806470870972,0.8992307782173157,1.2861523628234863,0.8923634886741638,0.8248763680458069,2.097590208053589,0.7686737775802612
0.3154107928276062,0.320365309715271,0.36582010984420776,0.3963607847690582,0.20218810439109802,0.6029186248779297,0.6348363757133484,0.5424895882606506,1.5274946689605713,0.4044865071773529
0.9594581127166748,1.0108698606491089,0.8002745509147644,0.9320027232170105,0.7875319719314575,0.9979404807090759,1.090980887413025,1.0549076795578003,1.1176789999008179,1.068407416343689
0.4456154406070709,0.4367814064025879,0.48014360666275024,0.5991129279136658,0.41476401686668396,0.889244794845581,0.6619939208030701,0.5404903888702393,0.8455981612205505,0.48872601985931396
0.3818552792072296,0.461957186460495,0.48699697852134705,0.46659713983535767,0.1964753419160843,0.5158867835998535,0.8283296823501587,0.7267625331878662,1.3647353649139404,0.3610630929470062
0.9238259792327881,0.9121757745742798,0.7376234531402588,0.913171112537384,0.6819818615913391,1.269644856452942,1.0453953742980957,0.9057744145393372,0.9137306213378906,0.9133016467094421
0.38365206122398376,0.5633867979049683,0.7990995645523071,0.7708463072776794,0.4897417426109314,0.974025309085846,0.8693124651908875,0.8012999296188354,0.9292612075805664,0.4723352789878845
0.43160638213157654,0.38604459166526794,0.5117520093917847,0.5773274898529053,0.3753182291984558,0.8359305262565613,0.7235797643661499,0.5984544157981873,1.694805383682251,0.44036903977394104
0.5874296426773071,0.2754853665828705,0.36010250449180603,0.40325927734375,0.2303617298603058,0.6451466679573059,0.5919418931007385,0.4723620116710663,1.5367997884750366,0.38444194197654724
0.5109104514122009,0.354377806186676,0.46844661235809326,0.5234290361404419,0.2565336525440216,0.7226338386535645,0.6674858331680298,0.5929351449012756,1.56233549118042,0.36047810316085815
1.106905221939087,0.46477141976356506,0.27163025736808777,0.38724175095558167,0.3762270212173462,0.4448533356189728,0.6331954002380371,0.49698901176452637,1.281213402748108,0.6386116147041321
0.9436719417572021,0.7226905822753906,0.49874165654182434,0.6761353015899658,0.5699923038482666,0.9726901650428772,0.9167993664741516,0.8040745258331299,1.683791160583496,0.8458254933357239
0.9689795970916748,1.1941877603530884,0.8609445095062256,0.9472087621688843,0.7396331429481506,1.4144278764724731,1.5669833421707153,1.4347201585769653,0.7857195734977722,1.1753188371658325
1.3698097467422485,0.638530433177948,0.48236721754074097,0.533993124961853,0.46706846356391907,0.707768440246582,0.8376705646514893,0.7463215589523315,1.6733450889587402,0.7323741316795349
0.46862003207206726,0.46613743901252747,0.5166082978248596,0.5425773859024048,0.32568585872650146,0.8243119120597839,0.7143014669418335,0.6395206451416016,1.6276780366897583,0.37670955061912537
1.032888650894165,0.36847615242004395,0.4350675046443939,0.52142333984375,0.38032007217407227,0.6634923815727234,0.5007326602935791,0.3804855942726135,1.5719759464263916,0.43892672657966614
0.6060390472412109,0.6913504004478455,0.47126173973083496,0.623429000377655,0.4815974533557892,0.9382227063179016,0.9219374656677246,0.8166875839233398,1.1707948446273804,0.7901410460472107
0.7505035400390625,0.6648839712142944,0.4646857678890228,0.5730737447738647,0.4943581521511078,0.7987387180328369,0.8318307995796204,0.7467961311340332,1.1321336030960083,0.8061705827713013
0.4141615331172943,0.3921460509300232,0.4372207820415497,0.41410574316978455,0.17372430860996246,0.5026707649230957,0.7345170974731445,0.6330754160881042,1.3810888528823853,0.38509601354599
0.8408775925636292,0.48489487171173096,0.32062023878097534,0.5287395119667053,0.4446505010128021,0.7526822090148926,0.6079611778259277,0.4817520081996918,1.6080925464630127,0.596951425075531
0.35235708951950073,0.36734333634376526,0.40193241834640503,0.3982537090778351,0.1881382018327713,0.5318242907524109,0.7060053944587708,0.5906651020050049,1.4811742305755615,0.3464149534702301
0.49999570846557617,0.35106703639030457,0.3828742802143097,0.40871497988700867,0.17400166392326355,0.5696009993553162,0.7005693912506104,0.6036854982376099,1.479569435119629,0.3769931197166443
0.6460390686988831,0.959814190864563,0.6591606140136719,0.8177118301391602,0.7145874500274658,1.239187240600586,1.1669247150421143,1.0572118759155273,1.1356180906295776,0.9897517561912537
0.7322830557823181,1.2629483938217163,0.9851652979850769,1.0955965518951416,0.9130082130432129,1.5682053565979004,1.481100082397461,1.372538685798645,1.1734379529953003,1.2716503143310547
0.6721259951591492,0.9685798287391663,0.6724491715431213,0.7607449293136597,0.5703735947608948,1.0822334289550781,1.1827244758605957,1.1470746994018555,1.7680480480194092,1.0908112525939941
0.4880780875682831,0.9952397346496582,1.001492977142334,1.1793732643127441,1.0564396381378174,1.460866093635559,1.032189965248108,0.9949122667312622,1.7541314363479614,0.9562694430351257
0.7247433066368103,1.056862235069275,0.7417201399803162,0.8670592904090881,0.6473740935325623,1.2422406673431396,1.2436825037002563,1.1542420387268066,1.6097174882888794,1.0426132678985596
0.9634972214698792,0.614080011844635,0.3858310580253601,0.5752959847450256,0.38120806217193604,0.8210338354110718,0.7994479537010193,0.7080385088920593,1.4873862266540527,0.7298851609230042
0.723944902420044,1.129211664199829,0.864517092704773,0.9970611333847046,0.8358767032623291,1.4596679210662842,1.3312665224075317,1.2162928581237793,1.2386571168899536,1.0853203535079956
0.7607690095901489,0.6023629307746887,0.3995882570743561,0.3680473268032074,0.32591211795806885,0.36796194314956665,0.7392002940177917,0.6702381372451782,1.1680138111114502,0.7913085222244263
0.7922457456588745,0.9467257261276245,0.7329714894294739,0.8899955749511719,0.7345433831214905,1.2915774583816528,1.1034791469573975,1.0107249021530151,1.0263639688491821,0.9655953049659729
0.7997735142707825,0.6516919732093811,0.5486140251159668,0.7491589784622192,0.6389132142066956,1.08519446849823,0.7935544848442078,0.735906720161438,1.2067630290985107,0.6678329706192017
0.839601993560791,0.631088376045227,0.3848852813243866,0.43413883447647095,0.3976105749607086,0.5971877574920654,0.7974910140037537,0.7178159356117249,1.562839150428772,0.7939485907554626
0.6688657999038696,1.2147972583770752,1.0087659358978271,1.1671611070632935,0.9057894945144653,1.605494499206543,1.3859503269195557,1.2921760082244873,1.2538570165634155,1.1672312021255493
0.5942214131355286,0.7889052629470825,0.8311091661453247,0.7138153314590454,0.3779315948486328,0.7132568955421448,1.1158307790756226,1.0474903583526611,1.1087119579315186,0.5615716576576233
0.5541327595710754,0.7029905319213867,0.4973853826522827,0.4978058636188507,0.41593828797340393,0.4835643768310547,0.9163213968276978,0.8433717489242554,1.417588472366333,0.8876246809959412
0.6108064651489258,1.2378498315811157,1.2353631258010864,1.4236335754394531,1.2015999555587769,1.7147777080535889,1.2104748487472534,1.163338303565979,1.8012301921844482,0.9875026941299438
0.6942294836044312,1.0367237329483032,0.8017502427101135,0.9080440998077393,0.49782413244247437,1.3311342000961304,1.2735979557037354,1.168357253074646,0.7435981035232544,0.9773249626159668
1.0265227556228638,0.920330286026001,0.7103739380836487,0.8555598258972168,0.6839471459388733,1.2229467630386353,1.1236408948898315,0.9905551075935364,1.3146531581878662,0.9930566549301147
0.5711917877197266,0.4356965720653534,0.6473854184150696,0.5899081230163574,0.3315403461456299,0.5838042497634888,0.7043691873550415,0.5941218137741089,1.157102108001709,0.29917484521865845
0.45685359835624695,0.5062246918678284,0.6625090837478638,0.5790387988090515,0.28547555208206177,0.5744619965553284,0.7966936230659485,0.7215093970298767,1.1459934711456299,0.37272781133651733
0.8942124247550964,0.4546723961830139,0.3618776202201843,0.47271886467933655,0.496620237827301,0.7802743911743164,0.5507032871246338,0.43282026052474976,1.7563730478286743,0.5682759881019592
1.0007448196411133,1.2178797721862793,0.9456919431686401,1.0834074020385742,0.9323393702507019,1.5169708728790283,1.3116668462753296,1.2334673404693604,1.5132743120193481,1.201743483543396
0.8466247916221619,0.5876356959342957,0.3494122326374054,0.4311795234680176,0.30699241161346436,0.5078665018081665,0.7920199036598206,0.7283969521522522,1.5892828702926636,0.7654599547386169
0.8328112959861755,0.41254639625549316,0.36783215403556824,0.5123344659805298,0.48064738512039185,0.7763785719871521,0.5262544751167297,0.41174420714378357,1.6632312536239624,0.4162173867225647
0.4022018015384674,0.4732136130332947,0.5742299556732178,0.5004907250404358,0.23608215153217316,0.4781378507614136,0.7984226942062378,0.6843060255050659,1.2850918769836426,0.4251234829425812
0.8979204297065735,1.1093261241912842,0.8080138564109802,0.8631777763366699,0.6358188986778259,1.185189127922058,1.3570164442062378,1.2172415256500244,1.2130470275878906,1.1429359912872314
0.5222094058990479,1.3210227489471436,1.2809439897537231,1.4577056169509888,1.21897292137146,1.7696757316589355,1.303336262702942,1.279336929321289,1.4939563274383545,1.0553743839263916
0.7188818454742432,1.2052189111709595,0.948436439037323,1.0365886688232422,0.8784680366516113,0.9992360472679138,1.3147858381271362,1.2966654300689697,1.5823298692703247,1.2860342264175415
0.7877880334854126,0.6301816701889038,0.5282478928565979,0.7069737315177917,0.6517336964607239,0.9624724388122559,0.7260541915893555,0.605596125125885,1.134109616279602,0.6992329359054565
0.3729196786880493,0.5194006562232971,0.5609751343727112,0.6534595489501953,0.5285438299179077,0.8275752663612366,0.5242372751235962,0.4446740448474884,1.5247538089752197,0.553626298904419
0.42713168263435364,0.506034791469574,0.5552279353141785,0.6779971718788147,0.47349199652671814,0.9450579285621643,0.7639793157577515,0.6899514198303223,1.7591984272003174,0.45085087418556213
0.5949207544326782,0.2885342538356781,0.32111451029777527,0.24851533770561218,0.15437418222427368,0.5075079798698425,0.6174122095108032,0.49022117257118225,1.0762258768081665,0.41926273703575134
0.3833688795566559,0.41840648651123047,0.3849218189716339,0.5126271843910217,0.33258554339408875,0.8225744366645813,0.6659858226776123,0.5526605844497681,1.64707612991333,0.47879907488822937
1.184630036354065,0.38973960280418396,0.18286144733428955,0.33089837431907654,0.3162842392921448,0.5126352310180664,0.5900092720985413,0.4791472256183624,1.0280218124389648,0.6165368556976318
1.2539914846420288,0.771369218826294,0.47024720907211304,0.6022528409957886,0.4614439010620117,0.9526079297065735,0.9651442766189575,0.8630663156509399,1.8560510873794556,0.8575850129127502
0.4798758924007416,0.4338340759277344,0.643618643283844,0.5758366584777832,0.293556272983551,0.7914724946022034,0.7521571516990662,0.5978608131408691,1.0573357343673706,0.38000914454460144
0.7540512084960938,0.8420435786247253,0.5499187111854553,0.6026539206504822,0.5354130864143372,0.7495673298835754,1.03030264377594,0.9400857090950012,1.6495451927185059,0.9826812148094177
0.5830200910568237,0.4251713156700134,0.3798772096633911,0.47362852096557617,0.2056792825460434,0.7578321099281311,0.780176043510437,0.6664049625396729,1.579787015914917,0.4641324281692505
1.0584297180175781,0.5135610699653625,0.24350346624851227,0.3280619978904724,0.2596711218357086,0.6269987225532532,0.7504445314407349,0.6638853549957275,1.5372275114059448,0.6271543502807617
0.5184454917907715,0.387154757976532,0.32359033823013306,0.3471297323703766,0.2945955991744995,0.5465028285980225,0.6685863137245178,0.5070354342460632,0.991226077079773,0.5153294205665588
0.627004861831665,1.0900596380233765,0.8073248267173767,0.874376118183136,0.7614227533340454,0.9960213899612427,1.2030373811721802,1.1293540000915527,1.681818962097168,1.1780868768692017
0.4713496267795563,0.8582537770271301,0.9717849493026733,1.0899776220321655,0.8907700181007385,1.4056230783462524,0.9647667407989502,0.9021898508071899,2.0934720039367676,0.7491877675056458
0.7421131134033203,0.9155985713005066,0.6213790774345398,0.6734161376953125,0.6052082180976868,0.8482229709625244,1.0552096366882324,0.9864001274108887,1.7702796459197998,1.0519723892211914
0.4983014762401581,0.6715238690376282,0.6739134788513184,0.6293784379959106,0.4018484354019165,0.5761523842811584,1.0166250467300415,0.9386451840400696,1.3490649461746216,0.4323806166648865
0.39956656098365784,0.3692721724510193,0.35142782330513,0.47387030720710754,0.25486427545547485,0.7190384268760681,0.680110514163971,0.6108219623565674,1.6083937883377075,0.4197855591773987
0.6788290739059448,0.3258510231971741,0.4943928122520447,0.39189326763153076,0.1956040859222412,0.3925461173057556,0.5660917162895203,0.5308021903038025,1.300126075744629,0.3914519250392914
1.1282824277877808,0.6593452095985413,0.42450326681137085,0.5932783484458923,0.3751138150691986,0.867633044719696,0.859912633895874,0.7621943354606628,1.317799687385559,0.7394657135009766
0.6628118753433228,0.8929628729820251,0.6323165893554688,0.7051371335983276,0.5902239084243774,0.9651114344596863,1.0860041379928589,0.9651680588722229,1.214332103729248,1.023952603340149
0.5392608046531677,0.640136182308197,0.4065834879875183,0.49308541417121887,0.3644215166568756,0.5146661400794983,0.8467075824737549,0.7735475897789001,1.3906980752944946,0.8326728940010071
0.7737071514129639,0.806780993938446,0.5849337577819824,0.7227066159248352,0.6400623321533203,1.0380017757415771,0.9364593029022217,0.8566001653671265,1.6984339952468872,0.8986472487449646
0.4500983953475952,1.0007535219192505,0.8627204895019531,0.8253960013389587,0.4870009422302246,1.0429784059524536,1.268026351928711,1.1436845064163208,0.96981281042099,0.9079915285110474
0.9903966188430786,1.1640759706497192,0.8473503589630127,0.9213049411773682,0.6930506825447083,1.1231591701507568,1.3853727579116821,1.25882089138031,1.8203097581863403,1.2149102687835693
0.4788050055503845,0.3602987229824066,0.4246661365032196,0.4373026490211487,0.2142261415719986,0.5158129334449768,0.7596865296363831,0.6404017806053162,1.4346823692321777,0.3965858817100525
1.2128026485443115,1.601937174797058,1.37620210647583,1.492985486984253,0.9166378974914551,1.8635774850845337,1.7248196601867676,1.639695644378662,2.1472203731536865,1.4683514833450317
0.4256272315979004,0.9439436793327332,1.020088791847229,1.1225839853286743,0.9314748048782349,1.4972703456878662,1.1441184282302856,1.0878174304962158,1.4032469987869263,0.8639376759529114
0.9228042960166931,0.916905403137207,0.6754340529441833,0.8497863411903381,0.6758727431297302,1.2736563682556152,1.1217138767242432,1.057077407836914,1.764861822128296,0.9713781476020813
1.071812629699707,1.0462584495544434,0.9040477871894836,0.9099105000495911,0.8872061967849731,1.188412070274353,1.2664159536361694,1.17496657371521,1.330739974975586,1.152483344078064
0.92935711145401,0.28009575605392456,0.3364304006099701,0.46103206276893616,0.3100017011165619,0.702691376209259,0.4823405146598816,0.3716186285018921,1.5849567651748657,0.382482647895813
1.1324878931045532,0.66061931848526,0.3839525580406189,0.5505449175834656,0.423563152551651,0.816444456577301,0.9164640307426453,0.7883411645889282,1.7901355028152466,0.794526994228363
1.1492055654525757,0.8658279180526733,0.6306869983673096,0.7524771094322205,0.5258334875106812,1.0681772232055664,1.139082908630371,0.9815009832382202,1.24434494972229,0.9528895616531372
1.0995084047317505,0.5733480453491211,0.46506258845329285,0.5594853758811951,0.42189961671829224,0.6747124195098877,0.7504445314407349,0.6441122889518738,1.5146931409835815,0.5868474841117859
1.0344822406768799,0.28139248490333557,0.29932987689971924,0.3430643081665039,0.30918121337890625,0.5805431604385376,0.41453760862350464,0.42381688952445984,1.5274602174758911,0.42666828632354736
0.99758380651474,0.40488600730895996,0.3132758140563965,0.33980998396873474,0.2267136573791504,0.44691285490989685,0.6248800158500671,0.4781525731086731,0.977447509765625,0.5377797484397888
0.5764498710632324,1.000027060508728,0.6893428564071655,0.7984461784362793,0.5994978547096252,1.1149847507476807,1.194386601448059,1.0823698043823242,1.0732964277267456,1.0586085319519043
0.443948894739151,0.47561728954315186,0.43540269136428833,0.49162712693214417,0.2458174079656601,0.7314493060112,0.8362497091293335,0.7293970584869385,1.5114028453826904,0.32276979088783264
0.5917239785194397,1.1677026748657227,0.8499510884284973,0.9434102773666382,0.695702314376831,1.3054629564285278,1.3644160032272339,1.2803508043289185,1.6991602182388306,1.1933902502059937
0.6887791752815247,0.5427312254905701,0.4165678024291992,0.5903889536857605,0.5088432431221008,0.8140116930007935,0.6785622835159302,0.5510493516921997,1.0265363454818726,0.6796641945838928
0.9377937316894531,0.23606425523757935,0.40000829100608826,0.37808477878570557,0.18253318965435028,0.5614219903945923,0.5029953122138977,0.4088986814022064,1.0541578531265259,0.34731924533843994
0.41219237446784973,0.47252774238586426,0.5854291915893555,0.6831241846084595,0.4533235728740692,0.9195528626441956,0.7620057463645935,0.6777207851409912,1.7536195516586304,0.44598573446273804
0.5465758442878723,0.8754839301109314,0.5796877145767212,0.7215449810028076,0.6447590589523315,1.0968332290649414,1.0586000680923462,0.9728370308876038,0.9291402101516724,0.9203751087188721
0.48077332973480225,0.8414020538330078,0.6421940922737122,0.7196887731552124,0.6281187534332275,0.8715452551841736,0.8475399613380432,0.7666542530059814,1.779038906097412,0.8291342854499817
0.8478542566299438,0.835719883441925,0.5899088978767395,0.7723361849784851,0.6376703977584839,1.1087322235107422,1.0501985549926758,0.9470269083976746,1.9022525548934937,0.9086461067199707
1.056746244430542,0.7712264657020569,0.5192362666130066,0.6373810768127441,0.5212704539299011,0.7950583100318909,0.9047008156776428,0.8128939867019653,1.5594083070755005,0.9253880977630615
0.5856658220291138,0.7257809042930603,0.4583505690097809,0.5709361433982849,0.5493992567062378,0.9213796257972717,0.8950480222702026,0.7738283276557922,1.5324586629867554,0.8293471336364746
0.40333300828933716,0.5758129358291626,0.6968027353286743,0.6509368419647217,0.4109380543231964,0.5633889436721802,0.8935397863388062,0.8084357380867004,1.2210521697998047,0.33459746837615967
0.7509443163871765,1.0160789489746094,0.8121117949485779,0.9576364159584045,0.6958860754966736,1.3536760807037354,1.0742700099945068,1.041114091873169,0.8410234451293945,1.011269211769104
1.036538004875183,0.6624938249588013,0.43162524700164795,0.6150288581848145,0.4538959860801697,0.9123747944831848,0.8774515986442566,0.7821519374847412,1.6337647438049316,0.7457136511802673
1.2613933086395264,0.6144198179244995,0.41171348094940186,0.3926056921482086,0.2990131676197052,0.5750886797904968,0.7917971014976501,0.7186680436134338,1.4816088676452637,0.7773670554161072
0.9090451598167419,0.7716259956359863,0.505958616733551,0.670035719871521,0.47328996658325195,0.9110046625137329,0.9665234684944153,0.8907265067100525,1.6355042457580566,0.8973592519760132
0.7512628436088562,0.7597343921661377,0.4962279796600342,0.5638246536254883,0.43043676018714905,0.7598028779029846,0.9777083396911621,0.8809378147125244,1.519004464149475,0.9217052459716797
0.7951682209968567,0.9896862506866455,0.7068803906440735,0.8447880148887634,0.6724444031715393,1.212935447692871,1.2632204294204712,1.1179463863372803,1.4925819635391235,1.0404999256134033
1.1364816427230835,0.5556393265724182,0.3262416124343872,0.48647961020469666,0.4636918008327484,0.7385458946228027,0.7093691229820251,0.5904772877693176,1.778513789176941,0.6755009889602661
0.7748678922653198,0.9338103532791138,0.6374236345291138,0.7662817239761353,0.6153938174247742,1.1117055416107178,1.1196931600570679,1.018641471862793,1.6079055070877075,1.020188570022583
0.4296342432498932,0.4031611979007721,0.436749130487442,0.5111208558082581,0.2307979315519333,0.7460163235664368,0.7530303001403809,0.6495014429092407,1.5365066528320312,0.3975491523742676
1.0722005367279053,0.7706688046455383,0.5193361639976501,0.6619558334350586,0.5654527544975281,1.017744779586792,0.9863582849502563,0.8873177170753479,1.9449269771575928,0.8648579120635986
0.9699319005012512,0.7573223114013672,0.6040021777153015,0.798801600933075,0.7519829869270325,1.1079024076461792,0.9390292167663574,0.8561274409294128,1.0270308256149292,0.7855497598648071
0.7807856798171997,0.4186210036277771,0.3582092225551605,0.45723819732666016,0.3447439968585968,0.6472820043563843,0.4806802570819855,0.4946689307689667,1.4242841005325317,0.47951140999794006
0.44927313923835754,0.49489283561706543,0.5887348055839539,0.6811621189117432,0.4956442713737488,0.9687303304672241,0.7404985427856445,0.6309998631477356,1.8049509525299072,0.5131431818008423
0.4044106602668762,0.6121094822883606,0.7111192345619202,0.808012068271637,0.5229216814041138,1.1321214437484741,0.929631233215332,0.8189069032669067,1.6125061511993408,0.5422990918159485
0.7571671009063721,1.1885647773742676,0.8647647500038147,0.9692866802215576,0.6860352158546448,1.2746500968933105,1.4298548698425293,1.3221869468688965,1.3649919033050537,1.2349045276641846
0.3601129651069641,0.7040367126464844,0.7768945693969727,0.896772563457489,0.673829197883606,1.2168904542922974,0.9606505036354065,0.8629200458526611,1.2858153581619263,0.6136131286621094
0.5090518593788147,0.4450713098049164,0.5059651136398315,0.48356837034225464,0.2311125248670578,0.49723508954048157,0.8078838586807251,0.7151970267295837,1.3155906200408936,0.35893043875694275
0.4367574155330658,0.45961272716522217,0.5288938879966736,0.6339693665504456,0.3849979341030121,0.9174896478652954,0.779316246509552,0.7075166702270508,1.6906780004501343,0.4771536588668823
0.881763219833374,0.8461383581161499,0.6791532039642334,0.8540575504302979,0.6945120096206665,1.1872750520706177,1.0075663328170776,0.9179280400276184,1.1197857856750488,0.8928809762001038
1.3921620845794678,1.2858526706695557,1.0040390491485596,1.0158421993255615,0.8844401240348816,1.0007447004318237,1.472287893295288,1.3936868906021118,1.2931193113327026,1.4045015573501587
0.8911378979682922,0.45784708857536316,0.36097267270088196,0.5442266464233398,0.5226285457611084,0.8020448088645935,0.588668167591095,0.496296226978302,1.5540705919265747,0.5710453987121582
0.6497071385383606,1.2910352945327759,1.0633947849273682,1.2229419946670532,1.004629373550415,1.6822785139083862,1.409807562828064,1.2987382411956787,1.2480251789093018,1.1867914199829102
0.6924936771392822,0.37221282720565796,0.43027204275131226,0.31785815954208374,0.22203773260116577,0.7545135021209717,0.8673745393753052,0.6436320543289185,0.7798480987548828,0.41012120246887207
0.4338935911655426,0.3810799717903137,0.5036105513572693,0.45734062790870667,0.2291998565196991,0.5990191102027893,0.6989647746086121,0.5725433826446533,1.0168431997299194,0.364180326461792
0.4093133807182312,0.5538133978843689,0.6619200706481934,0.7423269748687744,0.602805495262146,1.057937741279602,0.7959188222885132,0.7066428065299988,1.8751484155654907,0.5868129730224609
0.5069807767868042,1.1623653173446655,0.9008342027664185,0.9453164339065552,0.805142343044281,1.0185741186141968,1.0834463834762573,1.066658616065979,1.6981405019760132,1.1313952207565308
0.5784578919410706,1.153388261795044,0.8577658534049988,0.9325092434883118,0.8124841451644897,1.098404884338379,1.2689844369888306,1.2240331172943115,1.8106364011764526,1.2513537406921387
0.5397359132766724,0.8669317960739136,0.6347869038581848,0.7939227819442749,0.7035773396492004,1.1787471771240234,1.0613137483596802,0.9590142965316772,1.1295450925827026,0.9342148303985596
0.5777046084403992,0.4182584285736084,0.6445537805557251,0.5855006575584412,0.30607014894485474,0.6104009747505188,0.7019971609115601,0.5991490483283997,1.0868322849273682,0.31953707337379456
0.6613462567329407,0.9092035293579102,0.6199214458465576,0.7941178679466248,0.481768935918808,1.1946203708648682,1.1853822469711304,1.056054949760437,1.7457478046417236,0.9285988807678223
0.6761565208435059,0.836747944355011,0.6119945049285889,0.798628032207489,0.6534281969070435,1.1602534055709839,1.0508440732955933,0.9333931803703308,1.4596755504608154,0.8946858048439026
0.7500845789909363,0.4865252375602722,0.4737521708011627,0.34292083978652954,0.1431540846824646,0.6443816423416138,0.9001034498214722,0.7324010133743286,0.9138819575309753,0.5014364123344421
0.5612866878509521,1.4388515949249268,1.469391107559204,1.6481620073318481,1.2576872110366821,1.9881850481033325,1.535879135131836,1.49076509475708,1.6246007680892944,1.0748337507247925
1.2339268922805786,0.6857327222824097,0.4569913148880005,0.5893073678016663,0.43741217255592346,0.8941263556480408,0.8566864132881165,0.8308100700378418,1.8027353286743164,0.7528583407402039
0.6283407807350159,0.6574411392211914,0.444479376077652,0.5660908818244934,0.5559347867965698,0.865707516670227,0.7632143497467041,0.6679506301879883,1.589833378791809,0.7612084746360779
1.1350579261779785,0.4091571867465973,0.39869675040245056,0.5036445260047913,0.3733035922050476,0.7127989530563354,0.6376672387123108,0.5316371917724609,1.3374342918395996,0.6063488721847534
0.6379184722900391,0.5622785687446594,0.4546172320842743,0.6113032698631287,0.30177822709083557,0.9556074142456055,0.7886260151863098,0.6782805919647217,0.8102735280990601,0.6059577465057373
1.0390456914901733,0.5408737659454346,0.3332211673259735,0.3619740605354309,0.32823997735977173,0.4086563289165497,0.7147480845451355,0.6296485066413879,1.166078805923462,0.7597517967224121
0.5963029861450195,0.6796553730964661,0.6179368495941162,0.783750057220459,0.7461780309677124,1.0450623035430908,0.6962605714797974,0.6330313086509705,1.389460563659668,0.695149302482605
1.072095274925232,0.4682883322238922,0.3113877475261688,0.36722612380981445,0.3451639413833618,0.48467183113098145,0.5949992537498474,0.5280618667602539,1.3012690544128418,0.6628841757774353
0.5793378353118896,0.5232915282249451,0.5510435104370117,0.6547420024871826,0.4964258074760437,0.7021004557609558,0.6460925340652466,0.570207953453064,1.4500905275344849,0.5214402079582214
0.8130661249160767,0.2718712091445923,0.26439225673675537,0.34071823954582214,0.1998630315065384,0.5120608806610107,0.5315438508987427,0.46834173798561096,1.5367282629013062,0.4041577875614166
0.6629573702812195,0.4739605188369751,0.2641580402851105,0.4001714587211609,0.3360711932182312,0.6856898665428162,0.6785318851470947,0.54524827003479,1.073927402496338,0.6341698169708252
0.7537568211555481,0.520073652267456,0.3155096471309662,0.5242826342582703,0.3722909092903137,0.6772726774215698,0.767524778842926,0.6362172961235046,1.071608543395996,0.7112677693367004
0.8759726285934448,0.42810770869255066,0.507946789264679,0.5809815526008606,0.4903537333011627,0.8147121071815491,0.47236302495002747,0.44209998846054077,1.492561936378479,0.4914305508136749
1.103250503540039,0.5933113694190979,0.39167681336402893,0.5609483122825623,0.4508604109287262,0.7476688623428345,0.8010022640228271,0.6862632632255554,1.7881572246551514,0.7963647842407227
0.9293746948242188,0.9231932163238525,0.6285900473594666,0.6739106774330139,0.3352677822113037,0.8323068022727966,1.1503827571868896,1.080057978630066,1.6754484176635742,0.8557299375534058
0.9271209836006165,0.9259374141693115,0.6632531881332397,0.8084263205528259,0.6897388696670532,1.144650936126709,1.120976209640503,1.0077439546585083,1.3444007635116577,1.0257878303527832
0.710666835308075,1.1835793256759644,1.0049891471862793,1.16733980178833,0.9578171968460083,1.5243362188339233,1.287732720375061,1.2037423849105835,1.2624537944793701,1.2027026414871216
1.1738476753234863,1.0096449851989746,0.6937373876571655,0.7931855320930481,0.6410510540008545,1.0718096494674683,1.2489986419677734,1.1232872009277344,1.9076733589172363,1.0869501829147339
0.7597693800926208,0.7735153436660767,0.4666558802127838,0.5293886065483093,0.47951456904411316,0.8252707719802856,0.9688336253166199,0.8791676163673401,1.3981080055236816,0.8968878984451294
0.5818157196044922,0.9614197611808777,0.6625012755393982,0.7086474895477295,0.6009451746940613,0.9342750310897827,1.175776481628418,1.0603551864624023,1.6097228527069092,1.07063889503479
0.42197784781455994,0.3937794864177704,0.2601609230041504,0.37566766142845154,0.32941970229148865,0.5502209067344666,0.5642850995063782,0.4377400279045105,1.606559157371521,0.4638923704624176
0.41991421580314636,0.4739322364330292,0.4265119135379791,0.3770526051521301,0.18848030269145966,0.46718907356262207,0.8109807372093201,0.718420147895813,1.3521676063537598,0.4325053095817566
0.6933916211128235,0.5209748148918152,0.5841445922851562,0.6947157382965088,0.5935724377632141,0.7592281103134155,0.5379714369773865,0.45779821276664734,1.29082190990448,0.5415801405906677
1.0001894235610962,0.7159009575843811,0.5579016804695129,0.6162097454071045,0.5551376938819885,0.6759233474731445,0.8005796074867249,0.6856184005737305,1.2413203716278076,0.7684374451637268
1.1264687776565552,1.0276306867599487,0.7091659307479858,0.8300119042396545,0.6359253525733948,1.1453568935394287,1.2515923976898193,1.152266263961792,1.973388671875,0.979946494102478
1.223597764968872,0.6920288801193237,0.5423919558525085,0.48133644461631775,0.39233553409576416,0.3842567205429077,0.9042382836341858,0.8218780159950256,1.3029959201812744,0.7321241497993469
0.3060300648212433,0.38014325499534607,0.40118739008903503,0.3923540711402893,0.17961008846759796,0.5641374588012695,0.6868956685066223,0.5706415772438049,1.4640436172485352,0.3456653356552124
0.6178693175315857,0.6146853566169739,0.6067114472389221,0.7752788662910461,0.6494190692901611,1.0232378244400024,0.7148697972297668,0.6335622668266296,1.9721895456314087,0.6882759928703308
0.472541481256485,0.4954478442668915,0.5891926288604736,0.6492531299591064,0.37645459175109863,0.9521010518074036,0.8711404204368591,0.7573390007019043,1.6110148429870605,0.5175426602363586
0.8659119606018066,0.8234663605690002,0.5718631148338318,0.7233619093894958,0.5649527311325073,1.0366835594177246,0.9813337326049805,0.8577379584312439,1.748553991317749,0.8929036855697632
0.632511556148529,1.2746427059173584,1.068541407585144,1.1694968938827515,0.6833516359329224,1.5869262218475342,1.5356453657150269,1.4378243684768677,0.7744086980819702,1.0107630491256714
0.6351835131645203,0.7752513885498047,0.8049293160438538,0.7906429767608643,0.44638916850090027,1.1483511924743652,1.2370967864990234,1.1096653938293457,0.8423606753349304,0.5106154084205627
0.673048198223114,0.8277023434638977,0.5978043079376221,0.7646507620811462,0.6119750142097473,1.0595570802688599,0.9357818961143494,0.8732901215553284,1.5477864742279053,0.9150049686431885
0.5458779335021973,0.33330875635147095,0.4879661202430725,0.45688310265541077,0.22396403551101685,0.5265882611274719,0.670337975025177,0.5784821510314941,1.306657314300537,0.32495203614234924
1.027242660522461,0.6699837446212769,0.3978734612464905,0.5713902115821838,0.4243594706058502,0.9010781645774841,0.9447324872016907,0.8284801244735718,1.1566733121871948,0.7468874454498291
0.9269145727157593,0.2822827994823456,0.43123477697372437,0.4277677536010742,0.2757333219051361,0.6964991092681885,0.5182979702949524,0.40599381923675537,1.0552318096160889,0.28882238268852234
0.48512259125709534,0.3958672285079956,0.4174553453922272,0.42322245240211487,0.27450183033943176,0.6436771154403687,0.7442928552627563,0.6249297857284546,1.5958616733551025,0.46189865469932556
0.3818272054195404,0.7724438905715942,0.836915135383606,0.9560550451278687,0.7247487902641296,1.2842717170715332,0.993834376335144,0.9209018349647522,1.8681285381317139,0.6836908459663391
0.9428804516792297,1.2138642072677612,0.9253193140029907,0.9898009896278381,0.8631935715675354,1.2310553789138794,1.302047610282898,1.2109324932098389,1.7651901245117188,1.2539210319519043
0.4546239376068115,0.9099406599998474,1.0287188291549683,1.1358884572982788,0.9458454251289368,1.4497560262680054,1.0446075201034546,0.9994425773620605,1.9031786918640137,0.8138740658760071
0.7773895263671875,0.30942681431770325,0.34814512729644775,0.4192328453063965,0.3281991183757782,0.6911805272102356,0.546654224395752,0.4371381402015686,1.6212292909622192,0.41015228629112244
1.2218135595321655,1.2215473651885986,0.9123981595039368,0.9203945398330688,0.8105841279029846,1.090472936630249,1.4486688375473022,1.355643630027771,1.2688730955123901,1.3214267492294312
0.5663772225379944,1.123345971107483,0.8211701512336731,0.8987788558006287,0.6922740340232849,1.2318450212478638,1.3214815855026245,1.1914585828781128,1.0246210098266602,1.0551360845565796
0.39046138525009155,0.3816986382007599,0.34774601459503174,0.45352280139923096,0.2511178255081177,0.6954377293586731,0.7138739228248596,0.6291462779045105,1.5879313945770264,0.4525371491909027
0.4310859739780426,0.4708668291568756,0.4891720414161682,0.4349338114261627,0.21812117099761963,0.4708121716976166,0.8131992816925049,0.7195551991462708,1.3849643468856812,0.40847048163414
0.7855114340782166,0.7581912875175476,0.45907774567604065,0.528962254524231,0.4093268811702728,0.7435534596443176,0.9456824064254761,0.8739347457885742,1.4023035764694214,0.8743764758110046
0.3442528247833252,0.3351292014122009,0.46409574151039124,0.529700517654419,0.3341559171676636,0.7223511338233948,0.5233927965164185,0.4286355972290039,1.1181676387786865,0.23750008642673492
1.1289440393447876,0.5687350630760193,0.4453493654727936,0.4249683618545532,0.32206839323043823,0.4691491425037384,0.8104376196861267,0.6828019022941589,1.3210822343826294,0.7077164649963379
0.9764550924301147,0.6598188281059265,0.48335719108581543,0.5472180247306824,0.3473018705844879,0.563289225101471,0.8615958094596863,0.7786590456962585,0.7561826109886169,0.7363530993461609
0.41478824615478516,0.6141483783721924,0.6963940262794495,0.7814081311225891,0.6028987765312195,1.13424551486969,0.883072018623352,0.8249220252037048,1.7373991012573242,0.5618882775306702
0.6579428315162659,1.1299463510513306,0.7975292801856995,0.9403975605964661,0.6731011271476746,1.4659284353256226,1.383797526359558,1.3020330667495728,1.7634261846542358,1.0915309190750122
0.614247739315033,0.6691882014274597,0.7249481081962585,0.7569757699966431,0.4502359926700592,1.1015506982803345,1.169438123703003,1.0273053646087646,1.6246192455291748,0.5574073195457458
0.5735939145088196,0.603967547416687,0.6465334892272949,0.7256065607070923,0.5312190651893616,0.8371676206588745,0.6902411580085754,0.7061778903007507,1.4876885414123535,0.5887489318847656
0.9768422245979309,0.42116332054138184,0.3698606491088867,0.33014196157455444,0.1949538141489029,0.32776933908462524,0.634048581123352,0.5529077053070068,1.2762517929077148,0.542862057685852
1.6620376110076904,1.6901354789733887,1.5695370435714722,1.6213515996932983,1.3323171138763428,1.7117621898651123,1.8440327644348145,1.7963379621505737,1.859622597694397,1.552704930305481
0.7096598148345947,1.1435185670852661,0.8568903207778931,0.92381352186203,0.781906008720398,1.1094260215759277,1.21257483959198,1.1443567276000977,1.8460252285003662,1.226534128189087
0.4265963137149811,0.42892026901245117,0.48123589158058167,0.5851742625236511,0.4427623748779297,0.8730559349060059,0.6960636377334595,0.6216756105422974,1.7519428730010986,0.5279868841171265
0.6537272930145264,0.28928786516189575,0.2699968218803406,0.2420392483472824,0.10628530383110046,0.4261569082736969,0.5820587277412415,0.44706037640571594,1.184363603591919,0.4796173870563507
0.4580741822719574,0.5633091926574707,0.6458045244216919,0.7489819526672363,0.5266090631484985,1.0329527854919434,0.8225721120834351,0.7424789667129517,1.561055302619934,0.5287562608718872
1.0097874402999878,0.9825210571289062,1.0520023107528687,0.9241761565208435,0.6554002165794373,1.0628780126571655,1.3438606262207031,1.2659097909927368,1.04014253616333,0.7870550751686096
0.714658260345459,0.7871712446212769,0.5144863724708557,0.5913649797439575,0.47325754165649414,0.8845491409301758,0.9838440418243408,0.883910059928894,1.7341593503952026,0.9038525223731995
0.6341419816017151,1.280452013015747,0.9755448698997498,1.0665282011032104,0.9080790281295776,1.4491125345230103,1.5305695533752441,1.4168142080307007,1.1358016729354858,0.8396983742713928
0.9242146611213684,0.1999455839395523,0.35923969745635986,0.42491307854652405,0.21760554611682892,0.64036625623703,0.4984309673309326,0.37231600284576416,1.536547303199768,0.3995128870010376
0.6800332069396973,0.5163022875785828,0.6083076000213623,0.6965852975845337,0.44010767340660095,0.9780092835426331,0.5500443577766418,0.4175542891025543,1.3662707805633545,0.4652358889579773
0.40373095870018005,0.3861471116542816,0.4100075662136078,0.4331061542034149,0.18914510309696198,0.5837625861167908,0.7859527468681335,0.6577613949775696,1.4371436834335327,0.3748665153980255
1.823683261871338,1.8095941543579102,1.754500150680542,1.822236180305481,1.6484451293945312,2.04632306098938,1.9702240228652954,1.9595307111740112,1.9903804063796997,1.569473385810852
0.7270435690879822,1.2556241750717163,0.9645267724990845,1.0758379697799683,0.8664864897727966,1.569623351097107,1.5197219848632812,1.3705798387527466,1.383551001548767,1.2359381914138794
0.7581047415733337,0.8947702050209045,0.7932011485099792,0.9812126755714417,0.8295512795448303,1.2188968658447266,0.9377825260162354,0.862405002117157,1.7078615427017212,0.9124882221221924
0.36642441153526306,0.4652511477470398,0.495778352022171,0.5507887601852417,0.27782347798347473,0.8375948071479797,0.8733920454978943,0.7739466428756714,1.6363130807876587,0.4668741822242737
1.1427321434020996,0.6651012897491455,0.44470375776290894,0.6011801958084106,0.3711172938346863,0.9317276477813721,0.9478716850280762,0.831476092338562,0.9746156930923462,0.7295435667037964
0.45429131388664246,0.42727789282798767,0.6562585830688477,0.6085317730903625,0.3103344142436981,0.729612410068512,0.8167307376861572,0.6699028015136719,1.0746104717254639,0.3585282862186432
0.4147402346134186,0.7830954790115356,0.8708494305610657,0.9855333566665649,0.805380642414093,1.3095725774765015,0.9666796326637268,0.8925971388816833,1.5320414304733276,0.7528169751167297
0.6013309955596924,0.42077329754829407,0.260417103767395,0.4839726686477661,0.3625665307044983,0.5992266535758972,0.7203785181045532,0.5871760845184326,0.922808051109314,0.5351717472076416
0.5524975061416626,0.6483029723167419,0.4031361937522888,0.5368661284446716,0.4904521405696869,0.9851088523864746,0.8358718752861023,0.789606511592865,1.201606035232544,0.7242603302001953
0.4567771255970001,0.3921303153038025,0.36036771535873413,0.386799156665802,0.1780797243118286,0.5002143383026123,0.7318353056907654,0.6354305744171143,1.4759601354599,0.49454551935195923
0.9441028833389282,0.7636998891830444,0.47836723923683167,0.6321625709533691,0.47192832827568054,0.9027187824249268,0.9887487292289734,0.8627016544342041,1.8370773792266846,0.8582894206047058
0.9492999315261841,0.6409446001052856,0.8195913434028625,0.792149007320404,0.5623677968978882,1.1132086515426636,1.0044301748275757,0.8920325636863708,1.037006139755249,0.31532129645347595
0.46228504180908203,0.5337914228439331,0.47029900550842285,0.5148560404777527,0.32515034079551697,0.6587903499603271,0.7868971824645996,0.7356585264205933,1.4923815727233887,0.5262227654457092
0.5850141048431396,1.1254687309265137,1.0850632190704346,1.2604472637176514,1.1209644079208374,1.5620460510253906,1.1744548082351685,1.129662036895752,1.659724235534668,1.0848760604858398
0.47462770342826843,0.43471139669418335,0.6214752793312073,0.5773444771766663,0.3036063015460968,0.5609956383705139,0.7499097585678101,0.606877326965332,1.254132628440857,0.31750190258026123
0.4432666003704071,0.37575650215148926,0.501946747303009,0.4909724295139313,0.26107487082481384,0.5931940674781799,0.6794890761375427,0.5697417855262756,1.3996994495391846,0.2652186453342438
0.9111862182617188,1.2356972694396973,0.9618942141532898,1.1187344789505005,0.8720932006835938,1.582194447517395,1.4832394123077393,1.3588937520980835,1.9312121868133545,1.2096842527389526
1.3075937032699585,0.6654335856437683,0.38588637113571167,0.4760459363460541,0.42060044407844543,0.5264962315559387,0.8471677303314209,0.7450230121612549,1.3364906311035156,0.85507732629776
0.9602249264717102,0.8463296890258789,0.5649564266204834,0.6956233978271484,0.5554958581924438,0.9954826235771179,0.9987058639526367,0.9273092746734619,1.3931044340133667,0.9152588844299316
0.6595998406410217,1.3749281167984009,1.0378479957580566,1.190855860710144,0.9048815369606018,1.6612731218338013,1.5662193298339844,1.458050012588501,1.7284390926361084,1.2830041646957397
0.48729342222213745,0.4689269959926605,0.510841429233551,0.6194338798522949,0.5824059247970581,0.8908677101135254,0.5641268491744995,0.4763873219490051,1.802992820739746,0.531545877456665
1.0409103631973267,0.2815781235694885,0.2352435141801834,0.354810893535614,0.2764136493206024,0.5735005736351013,0.4612535536289215,0.36295247077941895,1.5627599954605103,0.43925967812538147
0.7654305100440979,0.6686350107192993,0.48814502358436584,0.6611273288726807,0.5667903423309326,0.911556601524353,0.8058433532714844,0.6919201612472534,0.8432988524436951,0.7388586401939392
0.7413577437400818,1.586281180381775,1.4836201667785645,1.6673572063446045,1.262980580329895,2.0224647521972656,1.5543268918991089,1.526222825050354,1.429948329925537,1.1207261085510254
0.5853832364082336,0.5015929937362671,0.3992897570133209,0.4204866588115692,0.20878559350967407,0.7551533579826355,0.8844714760780334,0.7554208040237427,1.4775868654251099,0.4424777328968048
0.5622373819351196,0.7979909777641296,0.5724411010742188,0.7695254683494568,0.5438156723976135,1.1391814947128296,0.9580013751983643,0.853704571723938,0.7706711888313293,0.5275623202323914
0.5958881974220276,0.2717212736606598,0.34071874618530273,0.3042576014995575,0.17184217274188995,0.5429896116256714,0.5439220666885376,0.39823752641677856,1.0400418043136597,0.33834904432296753
0.44867652654647827,0.600425660610199,0.680705726146698,0.7938321232795715,0.6262185573577881,1.1165707111358643,0.820956289768219,0.7447024583816528,1.8903930187225342,0.587112545967102
0.5360885858535767,0.3724025785923004,0.3213834762573242,0.34630444645881653,0.2140926867723465,0.4321848750114441,0.5874537825584412,0.42416688799858093,1.2823777198791504,0.3937867283821106
0.36029136180877686,0.46997547149658203,0.619698166847229,0.591009795665741,0.3458176851272583,0.6700558066368103,0.7709594368934631,0.6536800265312195,1.0977585315704346,0.27287527918815613
0.7597866654396057,0.36128056049346924,0.2955935597419739,0.46329399943351746,0.3879600167274475,0.6922695636749268,0.5505571961402893,0.39569807052612305,1.4269814491271973,0.5189647674560547
0.8932321667671204,0.749388575553894,0.6604185700416565,0.6197863817214966,0.42647773027420044,0.42962610721588135,0.9890727400779724,0.9354926347732544,1.276222825050354,0.8215274214744568
0.6449363827705383,1.0495364665985107,1.0486890077590942,1.1294797658920288,0.877281129360199,1.5830121040344238,1.176591396331787,1.082248330116272,1.0627650022506714,0.6618228554725647
0.7414305806159973,0.7643470764160156,0.46432071924209595,0.5349590182304382,0.506467342376709,0.8188854455947876,0.9866141080856323,0.8607794046401978,1.345270037651062,0.8862910270690918
0.5198512673377991,0.7351018190383911,0.43990200757980347,0.5512014031410217,0.38293692469596863,0.8045756220817566,0.9922723174095154,0.8661268949508667,1.4669771194458008,0.8318583965301514
0.6066915392875671,1.0082536935806274,0.710274338722229,0.7658112645149231,0.638317346572876,0.9141091108322144,1.1770702600479126,1.0716722011566162,1.7411571741104126,1.14070725440979
0.854671835899353,0.7186277508735657,0.5264819264411926,0.7061054706573486,0.5556482672691345,0.9787524342536926,0.8753705620765686,0.7887207865715027,1.569716215133667,0.8150945901870728
0.5559293627738953,0.8139549493789673,0.5964616537094116,0.7196555137634277,0.5738515257835388,1.0203505754470825,1.098628044128418,0.9183333516120911,1.4780861139297485,0.9485746622085571
0.9001771807670593,0.48819616436958313,0.31567785143852234,0.44872692227363586,0.40712249279022217,0.6265243291854858,0.6145645976066589,0.5228886008262634,1.553619384765625,0.6592667698860168
0.7340850234031677,0.698493242263794,0.7029655575752258,0.6753312349319458,0.4001927673816681,1.1098263263702393,0.8741641640663147,0.7899681925773621,0.8260399103164673,0.3575700521469116
1.0714656114578247,0.10948822647333145,0.2382383495569229,0.3409900367259979,0.18654826283454895,0.5522146821022034,0.45688867568969727,0.3449714183807373,1.039319634437561,0.4047912657260895
1.1114295721054077,0.992539644241333,0.6470692753791809,0.8280479311943054,0.42069241404533386,1.235278606414795,1.1955928802490234,1.0882595777511597,1.9602351188659668,0.9773025512695312
0.660542368888855,0.6577373743057251,0.5598922967910767,0.7509373426437378,0.6161699891090393,0.9990794658660889,0.7440923452377319,0.6739794611930847,1.0193510055541992,0.8006712198257446
0.5229008793830872,0.6260963082313538,0.7302606701850891,0.6677842140197754,0.392130970954895,0.6140003800392151,0.9639988541603088,0.8450137972831726,1.2519968748092651,0.4066326320171356
1.1284154653549194,0.7331801056861877,0.5032171607017517,0.47595566511154175,0.3987179100513458,0.45396578311920166,0.8940250873565674,0.839560329914093,1.2460144758224487,0.8649938106536865
0.36441388726234436,0.7144410610198975,0.7589684724807739,0.8685784935951233,0.6850252151489258,1.2488409280776978,1.0306031703948975,0.9131397604942322,1.4942489862442017,0.7142544388771057
0.6885340213775635,0.9516354203224182,0.7809727191925049,0.9256132245063782,0.7636827230453491,1.2550731897354126,1.0664465427398682,0.9618389010429382,0.8206648230552673,0.9872890114784241
0.7585694193840027,0.7313439846038818,0.8038410544395447,0.7201618552207947,0.3711869418621063,0.7771539688110352,1.094408631324768,1.0054556131362915,1.062583327293396,0.525007426738739
0.7648118138313293,1.1200281381607056,0.8125948309898376,0.9729711413383484,0.8013203144073486,1.3580039739608765,1.255669116973877,1.1445375680923462,1.8338944911956787,1.1350239515304565
0.7508584260940552,0.41293686628341675,0.35145118832588196,0.5338683128356934,0.4446362555027008,0.7343767881393433,0.5606393218040466,0.47171419858932495,1.4633458852767944,0.4619682729244232
1.0411492586135864,0.3715095818042755,0.27848997712135315,0.2232344150543213,0.1452457457780838,0.31993475556373596,0.5918968319892883,0.5012422204017639,1.1846346855163574,0.5184304118156433
0.7358766198158264,0.8633736968040466,0.557921826839447,0.6501560211181641,0.5480281114578247,0.9256048202514648,1.0490111112594604,0.9544480443000793,1.8526356220245361,0.9330759048461914
0.5131369233131409,0.5604767203330994,0.32620540261268616,0.4147735834121704,0.3423726260662079,0.5466182231903076,0.7459421753883362,0.6890389323234558,1.6071356534957886,0.78017258644104
0.6870696544647217,0.4295653700828552,0.4109058976173401,0.5575284361839294,0.4667101502418518,0.8159688115119934,0.6117783188819885,0.4673779606819153,1.8058092594146729,0.5688273906707764
0.812769889831543,1.5542241334915161,1.689616084098816,1.7689510583877563,1.3385090827941895,2.1033923625946045,1.6739400625228882,1.6502013206481934,1.8213940858840942,1.347558617591858
1.263258695602417,0.8911070227622986,0.7492542862892151,0.6126351356506348,0.5130295753479004,0.6358370780944824,1.1267731189727783,1.0305827856063843,0.9994023442268372,0.9801486134529114
1.0202524662017822,0.7068119645118713,0.4219399094581604,0.5139769911766052,0.37302377820014954,0.7607194185256958,0.9282828569412231,0.8011968731880188,1.3043575286865234,0.8022544384002686
1.1022083759307861,0.22991009056568146,0.288149356842041,0.3841501772403717,0.20924752950668335,0.5315276980400085,0.44352686405181885,0.32801491022109985,1.3108724355697632,0.36714285612106323
0.712284505367279,0.814325749874115,0.6192017197608948,0.809060275554657,0.5703655481338501,1.1322602033615112,1.0492417812347412,0.9182860851287842,1.0603129863739014,0.8494594693183899
1.0493108034133911,0.7042794823646545,0.4830660820007324,0.471676230430603,0.4153575003147125,0.43121662735939026,0.9010990262031555,0.8303897380828857,1.4850784540176392,0.7863893508911133
0.4081368148326874,1.0544047355651855,1.1426421403884888,1.2540552616119385,1.0522127151489258,1.608555793762207,1.2360113859176636,1.1730501651763916,1.623086929321289,0.9562094211578369
0.4014737904071808,0.7318470478057861,0.768390953540802,0.8766636252403259,0.6446356773376465,1.2726531028747559,1.0292052030563354,0.9373958706855774,1.9660155773162842,0.6666181683540344
0.9966747164726257,0.5589383244514465,0.31862595677375793,0.37023115158081055,0.32523593306541443,0.6184776425361633,0.7172070145606995,0.6769813299179077,1.6295522451400757,0.710887610912323
0.4720424711704254,1.0236316919326782,1.1384462118148804,1.2449871301651,1.078351378440857,1.5716217756271362,1.1508184671401978,1.091640830039978,1.991687536239624,0.9502770900726318
0.7925705909729004,0.4854891300201416,0.2647608518600464,0.3051142990589142,0.2787947952747345,0.3756294846534729,0.6874492168426514,0.5904003977775574,1.2453538179397583,0.6938772201538086
1.0523492097854614,0.9438856840133667,0.7562052607536316,0.9128008484840393,0.7096749544143677,1.2542213201522827,1.086315393447876,0.9661270976066589,1.6120636463165283,0.9792137742042542
0.7219394445419312,0.6917861700057983,0.4081316292285919,0.577591061592102,0.42407989501953125,0.8942071795463562,0.9099043607711792,0.808811604976654,1.3664199113845825,0.7552704215049744
0.9265668988227844,0.8599720597267151,0.5937498807907104,0.6069062352180481,0.4964289665222168,0.7370896339416504,1.0469403266906738,0.9607334136962891,1.0503473281860352,1.0128180980682373
1.165529489517212,0.6622675657272339,0.5304772853851318,0.45837098360061646,0.3471614420413971,0.48319360613822937,0.9387316107749939,0.830228865146637,1.0017095804214478,0.7862192988395691
1.0549380779266357,0.4913299083709717,0.29069891571998596,0.2970820665359497,0.24404436349868774,0.3411209285259247,0.683851957321167,0.6027687788009644,1.2497260570526123,0.6772266626358032
0.4019690752029419,0.8338541984558105,0.6180844306945801,0.7537057995796204,0.43055036664009094,1.0575478076934814,0.8967819809913635,0.8297401070594788,1.910983920097351,0.6122047305107117
0.3793480396270752,0.803160548210144,0.8781188130378723,0.9858109951019287,0.8294711709022522,1.3751269578933716,0.9985523223876953,0.9196907877922058,2.016993522644043,0.6603491306304932
0.5170621871948242,0.5768360495567322,0.7261186838150024,0.8330268263816833,0.5470112562179565,1.1097745895385742,0.8913824558258057,0.7831804752349854,1.0114415884017944,0.3702465891838074
0.5597068667411804,0.8163980841636658,0.5740455389022827,0.7161406874656677,0.40614888072013855,1.037610411643982,0.9943082332611084,0.891388475894928,1.9964854717254639,0.890346109867096
0.898547351360321,0.857283890247345,0.6278013586997986,0.7835732698440552,0.684798002243042,1.1359975337982178,0.9810789823532104,0.8906541466712952,1.0946366786956787,0.8814356327056885
1.005194902420044,0.7483731508255005,0.5600683689117432,0.7233765125274658,0.5651314854621887,0.9820671677589417,0.8936454057693481,0.783596932888031,1.695094108581543,0.8365144729614258
0.6763835549354553,0.42642730474472046,0.6336723566055298,0.6072471737861633,0.34021198749542236,0.7502122521400452,0.6569031476974487,0.5303365588188171,1.0433825254440308,0.27877968549728394
1.0828940868377686,0.6925764083862305,0.5367342829704285,0.3873293697834015,0.35688483715057373,0.35725894570350647,0.8831731677055359,0.8060843348503113,1.0703260898590088,0.7968960404396057
0.6978063583374023,0.7126659154891968,0.5781055688858032,0.6733438968658447,0.5997864007949829,0.6644359827041626,0.7609929442405701,0.6823994517326355,1.1374260187149048,0.7796720266342163
0.3812316656112671,0.4692634344100952,0.5373633503913879,0.5374870896339417,0.27931755781173706,0.5278139114379883,0.841392993927002,0.753631055355072,1.2396644353866577,0.3873542845249176
0.36531955003738403,0.7226061820983887,0.8176190257072449,0.9288908243179321,0.8098528385162354,1.2747883796691895,0.9368101358413696,0.844367504119873,1.7705225944519043,0.7348816394805908
0.39819955825805664,0.3325240910053253,0.3824036121368408,0.46559804677963257,0.29584190249443054,0.6640058159828186,0.6379286646842957,0.5610777735710144,1.614122986793518,0.4103856384754181
0.9365542531013489,1.0327895879745483,0.8442960977554321,0.7429864406585693,0.625673770904541,0.758682131767273,1.280160903930664,1.173993468284607,1.036271333694458,1.0775330066680908
0.9761552810668945,0.7987095713615417,0.6053549647331238,0.629737913608551,0.3752712607383728,0.7188324928283691,0.9167987108230591,0.845597505569458,0.9689580798149109,0.7947284579277039
0.5083492994308472,0.6799736022949219,0.40177521109580994,0.44266223907470703,0.35265052318573,0.6499457359313965,0.8565508127212524,0.7763318419456482,1.6228159666061401,0.8187833428382874
0.6469596028327942,0.9802045226097107,0.6909377574920654,0.7723796963691711,0.6196465492248535,1.1229304075241089,1.180769443511963,1.0757516622543335,1.8325573205947876,1.0418376922607422
0.7698187232017517,1.2316936254501343,1.3232563734054565,1.335401177406311,0.6267204880714417,1.7898709774017334,1.453500509262085,1.3695204257965088,1.3780505657196045,0.7446462512016296
0.9726226925849915,0.8665759563446045,0.5904929041862488,0.7621545195579529,0.6199830174446106,1.150081992149353,1.0436244010925293,0.965180516242981,2.0548508167266846,0.9251137375831604
0.57078617811203,0.8555870056152344,0.5606191754341125,0.7258497476577759,0.5630860924720764,1.059606909751892,1.0300425291061401,0.9063428044319153,1.4032505750656128,0.9070193767547607
0.35043153166770935,0.7269390821456909,0.5092474818229675,0.6416130065917969,0.46655356884002686,0.9978575706481934,0.8455299735069275,0.7722720503807068,0.7267759442329407,0.6271450519561768
0.41179800033569336,0.40824100375175476,0.3425475060939789,0.34582608938217163,0.21488969027996063,0.5491927266120911,0.7534027099609375,0.6559980511665344,1.4407099485397339,0.35083267092704773
0.3613591492176056,0.7121257781982422,0.43769121170043945,0.5792858004570007,0.47797495126724243,0.8348619937896729,0.884175181388855,0.8043081760406494,1.0493556261062622,0.8416852355003357
0.7881933450698853,0.628835916519165,0.34732186794281006,0.4131706953048706,0.42028602957725525,0.5211301445960999,0.7933552861213684,0.7193722128868103,1.4199274778366089,0.7641199231147766
1.0331538915634155,0.9275779724121094,0.9040699601173401,0.8358520865440369,0.7826824188232422,0.8827913403511047,1.3040786981582642,1.1506716012954712,1.0551615953445435,1.0196614265441895
0.4625946283340454,0.4726676642894745,0.536884605884552,0.46887683868408203,0.22470082342624664,0.4900285601615906,0.8520610332489014,0.730677604675293,1.3083703517913818,0.3755827248096466
1.1590466499328613,0.6347092390060425,0.3518338203430176,0.5141732692718506,0.38542258739471436,0.7845353484153748,0.821010410785675,0.7513123154640198,1.448833703994751,0.7347599267959595
0.47989651560783386,1.1107231378555298,1.0882748365402222,1.246751070022583,1.0573735237121582,1.5501751899719238,1.1243990659713745,1.042031168937683,1.911108136177063,1.0965046882629395
0.8931534886360168,0.2804846465587616,0.35273614525794983,0.32577383518218994,0.13154761493206024,0.3751295506954193,0.528419554233551,0.4077540934085846,1.3106253147125244,0.3905542194843292
0.8254581689834595,0.8994324207305908,0.6441000699996948,0.7394140362739563,0.6804723739624023,0.9749043583869934,1.013209581375122,0.9208322763442993,1.8205289840698242,0.9965782761573792
0.9384568929672241,0.5795478224754333,0.3420429527759552,0.42204901576042175,0.3678337335586548,0.6088288426399231,0.8145619630813599,0.6763135194778442,1.678558349609375,0.7728835940361023
1.2708240747451782,0.4315696358680725,0.30679085850715637,0.2264101803302765,0.14715400338172913,0.31390589475631714,0.6712720990180969,0.5488973259925842,1.3704272508621216,0.5913989543914795
0.36816340684890747,0.44375157356262207,0.6325360536575317,0.5867668390274048,0.31927651166915894,0.5247784852981567,0.7275810241699219,0.6425432562828064,1.1956077814102173,0.3584537208080292
0.35218045115470886,0.4169211685657501,0.4897591471672058,0.5279332995414734,0.2248048633337021,0.6918501853942871,0.7297664284706116,0.6266722083091736,1.4734132289886475,0.33842167258262634
0.7928634881973267,0.6000951528549194,0.44711512327194214,0.6256958246231079,0.525146484375,0.823074460029602,0.8450173735618591,0.7372855544090271,1.4910259246826172,0.7766639590263367
1.0353904962539673,0.9423021078109741,0.8387717008590698,0.9898776412010193,0.7709354162216187,1.2915525436401367,1.0982987880706787,1.0296250581741333,2.019883871078491,0.886185884475708
0.7746313810348511,0.7360293865203857,0.46144306659698486,0.5384412407875061,0.47970452904701233,0.6636476516723633,0.9279397130012512,0.8285443782806396,1.711147665977478,0.9063392281532288
0.41603711247444153,0.36822929978370667,0.5582174062728882,0.5998488664627075,0.37629231810569763,0.8315816521644592,0.6429168581962585,0.5722998380661011,0.9653036594390869,0.24515876173973083
0.5128251314163208,0.3708705008029938,0.5168341994285583,0.54929518699646,0.3498630225658417,0.7650704979896545,0.5719718337059021,0.433477520942688,1.5341541767120361,0.3329319953918457
0.5063137412071228,0.5820263028144836,0.5151438117027283,0.4814339578151703,0.40558168292045593,0.6084962487220764,0.9190188646316528,0.8503615260124207,1.3925836086273193,0.353147029876709
0.541641891002655,0.8149446845054626,0.576560914516449,0.7199334502220154,0.5728867053985596,0.997593343257904,0.9776806831359863,0.874477207660675,1.5414024591445923,0.9283708333969116
0.5809084177017212,0.821782112121582,0.7445111870765686,0.6466608047485352,0.38164785504341125,0.5671653151512146,0.972005307674408,0.8949604034423828,1.1975620985031128,0.8254836797714233
0.917157769203186,1.0980483293533325,0.8031880855560303,0.8640303611755371,0.6468821167945862,1.0745538473129272,1.2805917263031006,1.226223111152649,1.2571864128112793,1.1483460664749146
0.376569002866745,0.3643818199634552,0.3410128951072693,0.4892052114009857,0.3971843123435974,0.7040421366691589,0.5739651322364807,0.4807046353816986,1.448074221611023,0.553011417388916
0.9458473920822144,0.8019198179244995,0.5329325795173645,0.697794497013092,0.4532996714115143,0.9746007323265076,0.9766212701797485,0.8962686657905579,1.3022091388702393,0.8683247566223145
0.7342157959938049,0.31104588508605957,0.44114238023757935,0.3659984767436981,0.13810484111309052,0.4772603213787079,0.5854347348213196,0.4836665689945221,1.1954874992370605,0.3973199725151062
0.41279783844947815,0.5622707009315491,0.38594964146614075,0.3206516206264496,0.29169225692749023,0.5256022214889526,0.7580203413963318,0.5923930406570435,1.104501485824585,0.6761581301689148
0.4451116919517517,0.5736390948295593,0.6423816084861755,0.7718826532363892,0.4764581024646759,1.065098524093628,0.8347119688987732,0.7440570592880249,1.6957905292510986,0.4774021804332733
0.3782846927642822,0.915764570236206,1.0879945755004883,1.0689046382904053,0.5980814695358276,1.2866400480270386,1.1968499422073364,1.170371413230896,1.4166603088378906,0.6101935505867004
0.7540509104728699,0.4164750576019287,0.2648279070854187,0.33478614687919617,0.2813466489315033,0.48323869705200195,0.5902552008628845,0.4757837951183319,1.1870510578155518,0.6255502700805664
0.5053017139434814,0.5115780234336853,0.43677985668182373,0.5208515524864197,0.31565505266189575,0.8571701645851135,0.8447293639183044,0.7191746234893799,1.6789673566818237,0.4313737154006958
0.7131171822547913,0.6162077188491821,0.4976959526538849,0.4012507200241089,0.250979483127594,0.46398958563804626,0.8781177997589111,0.7619746923446655,1.010070562362671,0.6658326387405396
0.77060467004776,1.0050954818725586,0.7333128452301025,0.8755829334259033,0.7160653471946716,1.2891912460327148,1.1643779277801514,1.0427210330963135,1.7224515676498413,0.9988672733306885
0.6758406758308411,1.0955921411514282,1.173250675201416,1.1224881410598755,0.6891762018203735,1.3081642389297485,1.473809838294983,1.3702292442321777,1.1774933338165283,0.6876224875450134
0.6026957631111145,0.8021535277366638,0.7113074660301208,0.8914815187454224,0.7044436931610107,1.2529053688049316,1.0983352661132812,0.985142707824707,1.3755072355270386,0.6399922370910645
0.6581692695617676,0.3435698449611664,0.37096020579338074,0.4255652129650116,0.2567293047904968,0.6606778502464294,0.6090958118438721,0.5027661919593811,1.5827704668045044,0.39731475710868835
0.6875268816947937,1.0274134874343872,0.8516553640365601,1.0281859636306763,0.8250916004180908,1.402896523475647,1.230008840560913,1.1220258474349976,1.317248821258545,1.0252081155776978
0.44589972496032715,1.1651647090911865,1.2500052452087402,1.3636724948883057,1.1446894407272339,1.7481658458709717,1.3767446279525757,1.306925654411316,1.556077480316162,1.0454930067062378
0.8488364815711975,0.24559402465820312,0.27214527130126953,0.24051976203918457,0.14747871458530426,0.41984012722969055,0.5088134407997131,0.37028953433036804,0.5834985971450806,0.354267954826355
1.102659821510315,0.5148944854736328,0.4491852819919586,0.5334409475326538,0.43563616275787354,0.7123361825942993,0.5702789425849915,0.5861408114433289,1.4264748096466064,0.5937108993530273
0.9875869154930115,1.2587060928344727,1.0530725717544556,1.2285569906234741,0.9934054613113403,1.6673115491867065,1.404893159866333,1.3216688632965088,1.5386314392089844,1.1646720170974731
0.3942338228225708,0.4130576550960541,0.45635902881622314,0.4651419222354889,0.22072617709636688,0.6234508156776428,0.7440875768661499,0.674738347530365,1.4620227813720703,0.3417099416255951
1.0813192129135132,0.6280297040939331,0.42207807302474976,0.5188863277435303,0.4615328013896942,0.7930524349212646,0.7759323120117188,0.6672129034996033,1.7785961627960205,0.7816148400306702
0.4449809789657593,0.5303971767425537,0.5754333138465881,0.631370484828949,0.37253043055534363,0.9298256039619446,0.8732967376708984,0.7827592492103577,1.6533026695251465,0.4246300458908081
0.8186171650886536,0.4714849889278412,0.605772078037262,0.6524665951728821,0.49930307269096375,0.9071646332740784,0.48998627066612244,0.37449270486831665,0.9533623456954956,0.2659373879432678
0.5621222257614136,1.0663001537322998,1.175880789756775,1.0624678134918213,0.6747658252716064,1.2916862964630127,1.4727342128753662,1.3894529342651367,1.0104330778121948,0.7474327087402344
1.0035244226455688,0.27774637937545776,0.20650553703308105,0.3233177661895752,0.2569996416568756,0.5200818777084351,0.4564880430698395,0.31456106901168823,1.268649935722351,0.45197468996047974
0.8729051351547241,0.5270093679428101,0.34628474712371826,0.5719085931777954,0.35962769389152527,0.8104093074798584,0.7183205485343933,0.6327682733535767,1.098929762840271,0.635846734046936
0.5425006747245789,0.8212456703186035,0.5913825035095215,0.7225310802459717,0.5190826654434204,0.93880695104599,0.7814649939537048,0.6792371273040771,1.3190569877624512,0.6298023462295532
0.4021105170249939,0.4724797010421753,0.5749863386154175,0.5114307999610901,0.25256437063217163,0.46516841650009155,0.794940173625946,0.7139049172401428,1.2877707481384277,0.3702259957790375
0.4064277708530426,0.3458394706249237,0.4050411880016327,0.47842058539390564,0.25823095440864563,0.7295437455177307,0.6592299342155457,0.5604023337364197,1.6133278608322144,0.3579326272010803
0.7732741236686707,0.5685539245605469,0.4955480396747589,0.7203097939491272,0.6231116652488708,0.9799747467041016,0.7041797637939453,0.6232720613479614,1.0676363706588745,0.6086620688438416
0.3671839237213135,0.4601120352745056,0.5425503253936768,0.6297345161437988,0.4670372009277344,0.9192543029785156,0.7217768430709839,0.6490808725357056,1.7586933374404907,0.5029054284095764
0.6375694870948792,1.1143995523452759,0.7432041764259338,0.8617210984230042,0.6255881190299988,1.3256096839904785,1.3448731899261475,1.242937445640564,1.2862132787704468,1.070238709449768
0.4347760081291199,0.8377023935317993,1.0406430959701538,1.1242456436157227,0.6148232817649841,1.2981516122817993,0.8871699571609497,0.8243107795715332,1.762160062789917,0.6243038773536682
0.889755368232727,0.5442498922348022,0.4145475924015045,0.5384580492973328,0.5216144323348999,0.7488955855369568,0.6846022009849548,0.5400311946868896,1.709104299545288,0.6631893515586853
0.8236956000328064,1.3159918785095215,1.4912195205688477,1.42010498046875,0.9280605912208557,1.7993831634521484,1.716078281402588,1.6055885553359985,1.11170494556427,0.8495326638221741
1.003240942955017,0.5723351240158081,0.3829626142978668,0.5571549534797668,0.423121839761734,0.9441300630569458,0.7857964038848877,0.6731292009353638,0.7416625618934631,0.6161763668060303
0.7217366695404053,0.8858858942985535,0.6179530620574951,0.7070574760437012,0.39047732949256897,0.9370220899581909,1.1292704343795776,0.9884880185127258,1.886900544166565,0.9980888962745667
0.436392605304718,0.48869359493255615,0.6439846158027649,0.5810535550117493,0.29908278584480286,0.5631307363510132,0.7992113828659058,0.6976737380027771,1.2083638906478882,0.3457474708557129
0.6837210655212402,1.1100579500198364,0.793605625629425,0.9607263207435608,0.6516183018684387,1.4547064304351807,1.3780462741851807,1.27741277217865,1.4202786684036255,1.0563280582427979
0.9699018597602844,0.7666462659835815,0.4613594710826874,0.5535869002342224,0.45775163173675537,0.8830696940422058,0.9742736220359802,0.9185335636138916,1.8103556632995605,0.8615097403526306
0.6715115308761597,0.3945959508419037,0.2998163402080536,0.3900989890098572,0.34038007259368896,0.5981720089912415,0.521014928817749,0.4998416006565094,1.1188913583755493,0.5164686441421509
0.4796311557292938,0.3290577828884125,0.44337502121925354,0.43796506524086,0.1846567541360855,0.5806746482849121,0.6878350973129272,0.5892236232757568,1.4031845331192017,0.33836689591407776
0.44438716769218445,0.8166652321815491,0.9160516858100891,1.0373728275299072,0.8296406269073486,1.3515806198120117,0.9760633707046509,0.8899994492530823,2.0684280395507812,0.7421475648880005
0.7085874676704407,0.5762858390808105,0.44385021924972534,0.4229227602481842,0.28702425956726074,0.40110719203948975,0.7942748665809631,0.7212016582489014,1.060591459274292,0.7401430010795593
0.4049915373325348,0.4423771798610687,0.42163771390914917,0.5106467604637146,0.3497717082500458,0.817224383354187,0.7630013823509216,0.6487612128257751,1.6929835081100464,0.4508916735649109
0.4202357232570648,0.23858295381069183,0.27668410539627075,0.3735404908657074,0.2308228611946106,0.565227210521698,0.5003523826599121,0.33090096712112427,1.4853798151016235,0.4090173840522766
0.5540235638618469,0.30286723375320435,0.31516948342323303,0.4039965569972992,0.26693835854530334,0.5989135503768921,0.5624615550041199,0.4878543019294739,1.5677181482315063,0.43613335490226746
0.799608051776886,0.29003190994262695,0.20212645828723907,0.24285830557346344,0.12102918326854706,0.3701898455619812,0.5385235548019409,0.4227629601955414,1.1864473819732666,0.5018487572669983
1.046934723854065,0.7855046987533569,0.6119711995124817,0.7770224809646606,0.6009774208068848,1.0490074157714844,0.9376279711723328,0.8625480532646179,1.0450302362442017,0.8807236552238464
0.8290585875511169,0.8332535028457642,0.6635726094245911,0.8584479689598083,0.6640641689300537,1.2035109996795654,1.0078542232513428,0.9327369928359985,1.5861917734146118,0.8542438745498657
0.9453188180923462,0.5354758501052856,0.3230259418487549,0.5082702040672302,0.4289596676826477,0.8223470449447632,0.7829205989837646,0.6356375217437744,1.4461294412612915,0.677937924861908
0.40877920389175415,0.6562202572822571,0.7893484830856323,0.7032943367958069,0.39380955696105957,0.6626982092857361,1.0375322103500366,0.9307794570922852,1.1612768173217773,0.4292845129966736
0.9583523273468018,0.7101764678955078,0.4732557237148285,0.6034587025642395,0.479137659072876,0.8127701878547668,0.8916934728622437,0.7970224022865295,1.1294902563095093,0.8769797086715698
0.61115962266922,1.074837565422058,0.7908969521522522,0.8890354633331299,0.5017063021659851,1.0904221534729004,1.2568784952163696,1.1414854526519775,1.9134184122085571,1.2010835409164429
0.7563537955284119,0.2306506186723709,0.28327104449272156,0.3054068982601166,0.1426631063222885,0.5224950909614563,0.49779021739959717,0.38104844093322754,1.0456217527389526,0.4451201856136322
0.5301796793937683,0.3479423522949219,0.33309081196784973,0.42380011081695557,0.32651033997535706,0.6804498434066772,0.5608159899711609,0.45064643025398254,1.6859183311462402,0.48141008615493774
0.833361804485321,0.8652281165122986,0.5699983835220337,0.6681174039840698,0.606850802898407,0.7807846069335938,0.9517130255699158,0.8627153635025024,1.1684715747833252,0.87200528383255
0.490402489900589,0.5435054302215576,0.5406673550605774,0.44743040204048157,0.2111014574766159,0.5578380823135376,0.6603055000305176,0.6541174650192261,1.074747920036316,0.48520994186401367
0.6478603482246399,1.211951732635498,0.8826029300689697,0.9795562028884888,0.7380437254905701,1.3425047397613525,1.4392127990722656,1.339576244354248,1.6987206935882568,1.2324877977371216
0.52862548828125,0.5297196507453918,0.43316930532455444,0.4061531126499176,0.3227776885032654,0.6598113179206848,0.6961473226547241,0.6079737544059753,1.518493890762329,0.5553420186042786
0.39056089520454407,0.5038241744041443,0.5337713956832886,0.6271514296531677,0.44246527552604675,0.9217967391014099,0.8015090823173523,0.7038421034812927,1.7471144199371338,0.4924231767654419
0.8179235458374023,1.0460691452026367,0.7508770823478699,0.8457618951797485,0.7504807710647583,1.03457772731781,1.1837949752807617,1.0880069732666016,1.8627053499221802,1.1428070068359375
0.3558468222618103,1.2164767980575562,1.377105474472046,1.4233072996139526,1.1891168355941772,1.8108092546463013,1.3131111860275269,1.2279503345489502,1.326817512512207,0.9577788710594177
1.1847236156463623,1.064145565032959,0.8081837296485901,0.9093790054321289,0.6954335570335388,1.2585179805755615,1.2592313289642334,1.1649441719055176,2.086103677749634,1.141518235206604
0.48542770743370056,0.7410054206848145,0.7829974889755249,0.9438177943229675,0.8077070713043213,1.2630596160888672,0.9146967530250549,0.8651082515716553,2.0287671089172363,0.7394289374351501
0.6142289042472839,0.5930061936378479,0.386139839887619,0.40136879682540894,0.32477447390556335,0.41489556431770325,0.7275456190109253,0.6760262250900269,1.238515019416809,0.7550321221351624
1.038206934928894,0.9496499300003052,0.6637548208236694,0.8316144347190857,0.7072610259056091,1.2519820928573608,1.0803409814834595,1.0220589637756348,1.848344087600708,0.904264509677887
0.35900792479515076,0.37804028391838074,0.3830748200416565,0.3674923777580261,0.16690902411937714,0.5370619893074036,0.7396940588951111,0.6287217736244202,1.4416234493255615,0.37006399035453796
0.35569268465042114,0.8858343362808228,1.0670485496520996,1.1238175630569458,0.7602832317352295,1.4427419900894165,1.0439085960388184,0.9452589750289917,1.9014956951141357,0.6260625123977661
0.9683866500854492,0.5970363616943359,0.35545769333839417,0.4417401850223541,0.34630414843559265,0.6404299736022949,0.8288034796714783,0.6886103749275208,1.649839162826538,0.7610764503479004
0.7396008968353271,1.1111373901367188,0.9308794736862183,1.1012113094329834,0.8815182447433472,1.4625729322433472,1.3139379024505615,1.1927597522735596,0.9869204163551331,1.0614038705825806
0.9603354334831238,0.6895602345466614,0.47629454731941223,0.6576598882675171,0.5124081373214722,0.9597698450088501,0.8357275128364563,0.7212170362472534,1.6318469047546387,0.7524327039718628
0.8929992914199829,1.0923148393630981,0.8348839282989502,1.0005940198898315,0.7808427214622498,1.4395313262939453,1.336259365081787,1.2112188339233398,1.1119109392166138,1.0904595851898193
0.6038503646850586,0.7329786419868469,0.5225446820259094,0.638378381729126,0.5409253239631653,0.9697627425193787,0.8784781098365784,0.7938156723976135,0.9788147211074829,0.8435848355293274
0.6577612161636353,0.406357079744339,0.2887583374977112,0.21813195943832397,0.15049970149993896,0.36774295568466187,0.6776528358459473,0.5460423231124878,1.2073965072631836,0.5913495421409607
1.0695130825042725,0.82122403383255,0.6030688285827637,0.7853301763534546,0.6010727286338806,1.0823031663894653,0.9524166584014893,0.851184070110321,1.548176646232605,0.814731776714325
0.6809843182563782,0.737241804599762,0.560833752155304,0.588033139705658,0.5794743895530701,0.8447198867797852,0.901209831237793,0.7522861957550049,1.7137103080749512,0.7151772975921631
1.1417691707611084,0.3613088130950928,0.18411578238010406,0.23309220373630524,0.2034045308828354,0.3714236915111542,0.5595027208328247,0.4811991751194,1.1147938966751099,0.5863451957702637
0.699333131313324,0.35588937997817993,0.5772890448570251,0.567022442817688,0.3007577657699585,0.8070306181907654,0.5844477415084839,0.47734999656677246,0.9731372594833374,0.3497891128063202
0.724129319190979,1.1666005849838257,0.8931730389595032,0.9963226318359375,0.8110024929046631,1.2204532623291016,1.2569085359573364,1.1849867105484009,1.9738117456436157,1.242538571357727
0.5633271932601929,0.8087813854217529,0.5156800150871277,0.6144891977310181,0.48670047521591187,0.7818114161491394,0.9828776717185974,0.8791744112968445,1.1827664375305176,0.9564051032066345
0.5697031021118164,0.6429058313369751,0.6445935368537903,0.5152687430381775,0.3025435209274292,0.5590234994888306,1.0027108192443848,0.9038202166557312,1.1980221271514893,0.48201119899749756
0.6451026797294617,0.9803448915481567,0.7042354941368103,0.8528029918670654,0.7099530100822449,1.3076521158218384,1.1985963582992554,1.0889496803283691,1.466820240020752,0.9895205497741699
0.46049606800079346,0.5176925659179688,0.49237480759620667,0.6028121709823608,0.4650615155696869,0.9309445023536682,0.7279027104377747,0.6534513235092163,1.7061699628829956,0.5208947658538818
0.45998504757881165,0.5398116707801819,0.42647573351860046,0.5898752808570862,0.5042279958724976,0.831730842590332,0.6623324751853943,0.6015796661376953,0.8199899196624756,0.6554564833641052
1.0283180475234985,0.44665035605430603,0.37044480443000793,0.40407273173332214,0.279081791639328,0.3650207817554474,0.6880629658699036,0.6079508662223816,1.3443655967712402,0.540421724319458
0.6455333232879639,0.8639765977859497,0.8085504174232483,0.6798744201660156,0.3281612992286682,1.15443754196167,1.2411537170410156,1.1449147462844849,0.7165260314941406,0.6629396677017212
0.42041581869125366,0.8485190868377686,0.9319315552711487,1.0379714965820312,0.8599242568016052,1.3814879655838013,1.0276890993118286,0.9490724205970764,1.7564321756362915,0.7926958203315735
1.0891624689102173,0.7308037281036377,0.4551590383052826,0.5870771408081055,0.4792870283126831,0.9414727687835693,0.849489688873291,0.7477839589118958,1.7631992101669312,0.7780776023864746
0.9290041923522949,1.2062947750091553,0.942809522151947,1.0528225898742676,0.8670676350593567,1.4707716703414917,1.403476357460022,1.2717409133911133,1.4463632106781006,1.1807161569595337
0.8988525867462158,1.0250691175460815,0.9350095391273499,1.0189859867095947,0.6601166129112244,1.5300071239471436,1.2649226188659668,1.175713062286377,0.812947154045105,0.4907861053943634
0.6230083107948303,0.36316540837287903,0.4206995666027069,0.4205077290534973,0.24105599522590637,0.4837246835231781,0.6552529335021973,0.5417395234107971,1.4245665073394775,0.35059085488319397
0.8148235082626343,0.9196199178695679,0.678055465221405,0.8289403915405273,0.6746327877044678,1.2484136819839478,1.045379400253296,0.9934539198875427,1.030396580696106,0.9435982704162598
0.6293454766273499,1.0656229257583618,0.7649727463722229,0.8414502739906311,0.5681682825088501,1.1141979694366455,1.2807655334472656,1.1810016632080078,1.9096856117248535,1.1111711263656616
0.8898763060569763,0.7593476176261902,0.5019063949584961,0.5470772385597229,0.3053533732891083,0.5518369078636169,0.9546122550964355,0.8459811210632324,1.537987232208252,0.7718749642372131
1.508865237236023,1.163212776184082,0.8656304478645325,1.0076881647109985,0.7721340656280518,1.3340036869049072,1.4360599517822266,1.2899469137191772,1.3642815351486206,1.2145789861679077
0.8219315409660339,0.8357802033424377,0.5518898367881775,0.6342136263847351,0.506129264831543,0.9007149338722229,0.9780285358428955,0.905993640422821,1.7621089220046997,0.9596186876296997
0.9553726315498352,0.8678659796714783,0.6044986248016357,0.6322730183601379,0.5595422387123108,0.6861626505851746,1.0474377870559692,0.980636477470398,1.5465553998947144,1.0491442680358887
0.6532778143882751,0.35474738478660583,0.4790089726448059,0.4603176414966583,0.22819852828979492,0.5249361991882324,0.6084353923797607,0.56486976146698,1.1813085079193115,0.32287919521331787
0.5004072785377502,0.2823392450809479,0.28313326835632324,0.2426273226737976,0.09948278963565826,0.42709779739379883,0.5481292605400085,0.4294518530368805,1.203078031539917,0.4838739335536957
0.45932552218437195,0.47023627161979675,0.5762386918067932,0.505039393901825,0.2328951209783554,0.517897367477417,0.735817551612854,0.666536808013916,1.2413809299468994,0.4028855860233307
1.1416573524475098,0.8784550428390503,0.712099015712738,0.6259032487869263,0.3933931589126587,0.5588481426239014,1.095871090888977,1.0060691833496094,1.1548000574111938,0.9078218340873718
0.40477868914604187,0.6551145911216736,0.4596808850765228,0.6201932430267334,0.5289707779884338,0.8171985149383545,0.8093407154083252,0.7700415849685669,1.091174602508545,0.7424706816673279
0.4346325695514679,0.4005729556083679,0.4451022148132324,0.3847573697566986,0.2046431005001068,0.5507124066352844,0.7147615551948547,0.6017875075340271,1.419191598892212,0.4490879476070404
0.8485262989997864,0.9376444816589355,0.6426687240600586,0.7274569272994995,0.6496574878692627,0.9326581358909607,1.215712308883667,1.0989288091659546,1.8377342224121094,1.0893195867538452
0.3382573425769806,0.798140823841095,0.8499397039413452,0.8756851553916931,0.5989955067634583,1.2592402696609497,0.9274333119392395,0.8695680499076843,0.8692201972007751,0.5276309847831726
0.5321134328842163,0.9677636027336121,1.089988112449646,1.207488775253296,0.9641818404197693,1.4839802980422974,1.1450914144515991,1.025073528289795,1.9005229473114014,0.8491190671920776
0.4703578054904938,0.9228863716125488,0.9030930995941162,1.1058173179626465,0.9330832958221436,1.3537548780441284,0.9758303165435791,0.9125915765762329,2.1080503463745117,0.8880113959312439
0.4618701934814453,0.7319230437278748,0.8283058404922485,0.9460926055908203,0.7633171677589417,1.2632266283035278,0.960719645023346,0.8717717528343201,1.848809838294983,0.6872201561927795
0.7219865322113037,1.41205632686615,1.0911264419555664,1.1821131706237793,0.5825828909873962,1.537704348564148,1.606759786605835,1.5268490314483643,2.0486698150634766,1.2953319549560547
1.0859774351119995,0.8798152208328247,0.618286669254303,0.7721420526504517,0.6371161937713623,1.116526484489441,1.0298302173614502,0.9351206421852112,1.9758288860321045,0.9379073977470398
0.88234543800354,0.6910633444786072,0.46543455123901367,0.6416714191436768,0.5440970063209534,0.8748008012771606,0.8375452756881714,0.7433004975318909,1.5841585397720337,0.8046459555625916
0.6628832817077637,0.696219265460968,0.6879133582115173,0.7552900314331055,0.3207961618900299,1.169590950012207,0.8671806454658508,0.8140521049499512,1.593222737312317,0.5214207768440247
0.6621140837669373,0.32914257049560547,0.4592432677745819,0.41851088404655457,0.1788480132818222,0.4162570536136627,0.5608728528022766,0.4982684552669525,1.3393585681915283,0.393195778131485
0.420940637588501,0.7262989282608032,0.9030061364173889,0.8600666522979736,0.41175198554992676,1.1886166334152222,1.009492039680481,0.96845942735672,0.9335911273956299,0.6274985671043396
0.4372389018535614,0.534957230091095,0.5404531955718994,0.5340716242790222,0.3356817960739136,0.5355072021484375,0.9004576206207275,0.7974227070808411,1.2232505083084106,0.4189690053462982
0.8458682298660278,0.764117956161499,0.6125949621200562,0.8059345483779907,0.6679919958114624,1.1109687089920044,0.8603109121322632,0.7481187582015991,1.2027770280838013,0.8396355509757996
0.7722185850143433,0.9103683233261108,0.6297462582588196,0.7722119092941284,0.6310724020004272,1.1758897304534912,1.1380671262741089,1.0152851343154907,1.2519744634628296,0.9437535405158997
0.9345393180847168,0.33742591738700867,0.42114919424057007,0.3809306025505066,0.34349554777145386,0.4401419758796692,0.4703449010848999,0.3738544285297394,1.232391595840454,0.4274453818798065
0.7768962383270264,0.5338339805603027,0.49653923511505127,0.617143452167511,0.5583468079566956,0.6094738245010376,0.5744110345840454,0.4671810567378998,1.2877180576324463,0.5323762893676758
0.736411988735199,0.5870416760444641,0.6743773221969604,0.6867263913154602,0.5057367086410522,1.146454095840454,0.8766631484031677,0.8266028761863708,0.7928405404090881,0.3111974895000458
1.250582218170166,0.381807804107666,0.25203976035118103,0.2015017420053482,0.1546677052974701,0.36463093757629395,0.6064968705177307,0.485407292842865,1.0045766830444336,0.5332644581794739
0.8654393553733826,1.0735175609588623,0.7514180541038513,0.8795449733734131,0.7294902205467224,1.2345783710479736,1.268833041191101,1.1354098320007324,1.775888442993164,1.0801361799240112
0.35294628143310547,0.6544426679611206,0.8107895255088806,0.7283603549003601,0.404158353805542,0.6956881880760193,0.9843267798423767,0.8731643557548523,1.1126961708068848,0.40490686893463135
0.6739609837532043,0.5369027853012085,0.5315259099006653,0.7211288213729858,0.6004019379615784,0.894947350025177,0.6957834959030151,0.6355069279670715,1.894789457321167,0.6489564776420593
0.6717555522918701,0.35608235001564026,0.5704561471939087,0.553652822971344,0.3018546998500824,0.6788529753684998,0.5859936475753784,0.45019033551216125,1.0946626663208008,0.31689223647117615
0.592326819896698,0.8553284406661987,0.9756960272789001,0.9416527152061462,0.5343642830848694,1.3033777475357056,1.2742434740066528,1.191397786140442,1.3512787818908691,0.5759334564208984
0.5683476328849792,1.4013210535049438,1.4945026636123657,1.608315110206604,1.4135099649429321,2.0023193359375,1.5671013593673706,1.4938328266143799,1.916245698928833,1.284088373184204
0.877142608165741,0.9078003764152527,0.5578014254570007,0.6800691485404968,0.572280764579773,1.043866515159607,1.1457828283309937,1.0581034421920776,1.4750925302505493,0.9947941899299622
1.0688008069992065,0.23916661739349365,0.30949875712394714,0.3266080319881439,0.17232289910316467,0.46151047945022583,0.438273161649704,0.36305058002471924,1.1797946691513062,0.43908223509788513
0.49675652384757996,0.862617015838623,0.9147151112556458,1.0305769443511963,0.6987299919128418,1.4074620008468628,1.0904626846313477,1.0188597440719604,0.8302279710769653,0.7649310827255249
1.173467993736267,0.49414530396461487,0.3641529083251953,0.31662410497665405,0.18425783514976501,0.34058937430381775,0.707312285900116,0.6171966791152954,1.3879672288894653,0.6426804661750793
0.8315997123718262,0.24896006286144257,0.2989398241043091,0.4092508852481842,0.25572872161865234,0.46629613637924194,0.37541645765304565,0.3170425593852997,1.3650633096694946,0.39613863825798035
0.7765650749206543,0.556114912033081,0.5260624885559082,0.6466822624206543,0.6205987930297852,0.93205326795578,0.5904331207275391,0.5164659023284912,1.8477823734283447,0.6453719735145569
0.900865912437439,1.2127951383590698,1.1175967454910278,0.9777747392654419,0.42979782819747925,1.704744577407837,1.489161729812622,1.3794052600860596,0.6787920594215393,0.6444231271743774
0.8045430183410645,0.564434289932251,0.4898720979690552,0.6821800470352173,0.5479888916015625,0.9174392819404602,0.6969736218452454,0.6099183559417725,1.1419894695281982,0.6634849309921265
0.4291689395904541,0.4550669193267822,0.44257673621177673,0.4784187078475952,0.30398526787757874,0.722558319568634,0.78311687707901,0.6741597652435303,1.6408790349960327,0.3818070888519287
0.6418441534042358,1.4494240283966064,1.3776235580444336,1.5515589714050293,1.4381914138793945,1.9056460857391357,1.4389201402664185,1.3965394496917725,1.6220455169677734,1.2662014961242676
0.9451743960380554,1.051813006401062,0.8107207417488098,0.9520724415779114,0.8465818166732788,1.4239531755447388,1.1932467222213745,1.1275410652160645,1.1803992986679077,1.023149013519287
0.7310366034507751,0.866240918636322,0.5853657722473145,0.6036125421524048,0.27313345670700073,0.7087971568107605,1.060491919517517,0.9945895075798035,1.5709755420684814,0.8277018070220947
0.5243422389030457,0.8549376130104065,0.5487934947013855,0.6823582053184509,0.5001283288002014,1.12055504322052,1.0530059337615967,0.9866018295288086,0.7523367404937744,0.797927975654602
0.4164203107357025,0.3916949927806854,0.38511762022972107,0.42281007766723633,0.2453881800174713,0.6555563807487488,0.7481789588928223,0.6305046677589417,1.5151361227035522,0.4120563566684723
0.9198338985443115,0.3298557698726654,0.23441264033317566,0.2683664560317993,0.11754681915044785,0.32229241728782654,0.5738446116447449,0.4756110906600952,1.0895518064498901,0.5154727101325989
0.6114478707313538,0.8701412081718445,0.5866109132766724,0.6925931572914124,0.5799868702888489,0.9180557131767273,1.0559184551239014,0.9791536331176758,1.895870327949524,1.0302976369857788
0.8630054593086243,1.0209664106369019,0.7293107509613037,0.7822464108467102,0.671934962272644,0.9581416845321655,1.2564350366592407,1.1403993368148804,1.4227467775344849,1.1593306064605713
0.5964726805686951,0.4707724153995514,0.5213891267776489,0.6390165686607361,0.4016784429550171,0.873566210269928,0.6304581165313721,0.6120753884315491,1.7282696962356567,0.45366206765174866
0.8139376044273376,1.0136173963546753,0.8664051294326782,0.7385700941085815,0.592862069606781,0.7680227160453796,1.2535542249679565,1.1533421277999878,1.0324417352676392,1.058260202407837
0.8599709868431091,0.7029602527618408,0.45286351442337036,0.6538889408111572,0.42856210470199585,0.9641672372817993,0.8973609209060669,0.7676043510437012,1.2763339281082153,0.747835636138916
0.7263796925544739,0.8486329317092896,0.5294438600540161,0.6082154512405396,0.5229376554489136,0.8821318745613098,1.0426294803619385,0.9750387072563171,1.6817703247070312,0.9711353182792664
0.377092570066452,0.46710526943206787,0.4959493577480316,0.48941391706466675,0.22930850088596344,0.507499098777771,0.8043015003204346,0.7197455167770386,1.3683511018753052,0.3973330855369568
0.9440081715583801,0.7395495176315308,0.47423431277275085,0.6405078768730164,0.5329137444496155,0.9656779766082764,0.9349483251571655,0.8379093408584595,1.8999258279800415,0.8430677056312561
0.9463797807693481,0.3238464593887329,0.2712908685207367,0.30284595489501953,0.20547086000442505,0.4671769142150879,0.6315802931785583,0.4721575081348419,1.0182263851165771,0.4417138397693634
0.9442498683929443,0.6388368010520935,0.5308144688606262,0.5149196982383728,0.40064117312431335,0.5760855674743652,0.8136696219444275,0.681410551071167,1.1487773656845093,0.4537533223628998
1.053910255432129,0.588257908821106,0.3822172284126282,0.485557496547699,0.39932236075401306,0.6898196339607239,0.7615615129470825,0.6219834685325623,1.1485811471939087,0.7777761816978455
0.7729400992393494,1.0121519565582275,0.7817004919052124,0.9632374048233032,0.7861550450325012,1.3426531553268433,1.201065182685852,1.096544623374939,1.923195481300354,1.0494672060012817
0.3977445662021637,0.4873310923576355,0.6600198745727539,0.6775931715965271,0.5013288259506226,0.9855136871337891,0.6514926552772522,0.5428847074508667,0.8864654302597046,0.27594003081321716
1.0333707332611084,0.9048829078674316,0.6799878478050232,0.8876619935035706,0.7175324559211731,1.2607760429382324,1.0639735460281372,0.9420663118362427,0.7702893018722534,0.9570286273956299
0.33346426486968994,0.5222588181495667,0.43669578433036804,0.46862566471099854,0.4027407467365265,0.5511245131492615,0.5989940762519836,0.46463122963905334,1.4097135066986084,0.45913055539131165
0.681292712688446,1.0907834768295288,0.7790521383285522,0.9171577095985413,0.7408245801925659,1.2715498208999634,1.2686578035354614,1.1789277791976929,1.2777421474456787,1.1513748168945312
0.7380073666572571,0.621560275554657,0.4199015200138092,0.4002412259578705,0.2795621156692505,0.49846526980400085,0.8215321898460388,0.7462524175643921,1.458452582359314,0.7593375444412231
1.1571693420410156,1.5787304639816284,1.3650989532470703,1.3683110475540161,0.5285106897354126,2.089252233505249,1.874509572982788,1.8025294542312622,2.2992892265319824,0.8216122388839722
1.1783678531646729,0.5165550708770752,0.2858375906944275,0.4723493754863739,0.3723207712173462,0.669270932674408,0.7846620678901672,0.662617027759552,1.5646557807922363,0.7217114567756653
0.7803680300712585,0.8923777937889099,0.9810155034065247,1.0066978931427002,0.5261894464492798,1.3854076862335205,1.3589937686920166,1.2149133682250977,1.5310068130493164,0.6400567293167114
0.67985600233078,0.8468297123908997,0.6012529134750366,0.7392942905426025,0.5567456483840942,1.0547869205474854,1.0085370540618896,0.9021918773651123,1.9515506029129028,0.933873176574707
0.6899787187576294,0.9666175246238708,0.661988377571106,0.7605831027030945,0.5823627710342407,0.9578084945678711,1.1913135051727295,1.1134374141693115,1.8025224208831787,1.0734376907348633
1.3339473009109497,0.8959195017814636,0.6521744132041931,0.7483304142951965,0.6462355852127075,1.2272588014602661,1.2460834980010986,1.0318536758422852,1.4036974906921387,0.939753532409668
0.4701816439628601,0.8557865619659424,0.690604567527771,0.7483794093132019,0.5983270406723022,0.8490927219390869,0.8152498602867126,0.7542755603790283,1.6751455068588257,0.8007878661155701
0.6248941421508789,1.3853546380996704,1.0893924236297607,1.2411009073257446,0.9424381256103516,1.7070388793945312,1.6298249959945679,1.5530948638916016,1.7160612344741821,1.230924129486084
0.4727407395839691,0.8288065195083618,0.6134426593780518,0.6186479926109314,0.5674819350242615,0.8356685042381287,0.8297376036643982,0.9129108190536499,1.3403650522232056,0.9137462973594666
0.9416378736495972,0.8755077719688416,0.7501122355461121,0.9317114949226379,0.7175009846687317,1.238189458847046,1.0571926832199097,0.9795297980308533,1.5439653396606445,0.903744637966156
0.9570435881614685,1.0456273555755615,0.8075645565986633,0.8163080215454102,0.5972326993942261,0.6983336210250854,1.2154145240783691,1.1052933931350708,1.2079806327819824,1.0979620218276978
1.3552658557891846,1.03993821144104,0.8558754324913025,0.8742150664329529,0.7413567304611206,1.0450800657272339,1.2068833112716675,1.055027723312378,1.880265712738037,1.1525793075561523
1.0105514526367188,0.390887975692749,0.3227033019065857,0.4346570670604706,0.3946925401687622,0.6475771069526672,0.5022349953651428,0.40734338760375977,1.2180403470993042,0.5646505951881409
0.7341610193252563,0.8024569749832153,0.6324132084846497,0.603482723236084,0.4902116358280182,0.46244287490844727,1.0456591844558716,0.9764952659606934,1.3566112518310547,0.9444807767868042
0.8767857551574707,1.2616167068481445,1.0742297172546387,1.2239856719970703,0.9031398892402649,1.6548535823822021,1.3560287952423096,1.2208468914031982,1.1741632223129272,0.8876497745513916
0.5067782998085022,0.9209986925125122,0.6558014154434204,0.8074082136154175,0.6260323524475098,1.1653640270233154,1.174379825592041,1.0622973442077637,1.026412010192871,0.9669124484062195
0.6972227096557617,0.5958012342453003,0.3364354074001312,0.40723928809165955,0.28951817750930786,0.5340718626976013,0.7820701599121094,0.7073020339012146,1.5858261585235596,0.7645184397697449
0.5781373977661133,0.5838908553123474,0.5672974586486816,0.6591014862060547,0.4692762494087219,0.9791536331176758,0.8747900128364563,0.7680737972259521,0.8337821364402771,0.4164998233318329
1.0501896142959595,0.7647528648376465,0.5071278810501099,0.6240783333778381,0.5035054087638855,0.915540337562561,0.9688416123390198,0.8771832585334778,1.6921730041503906,0.893966555595398
1.0579332113265991,0.49649468064308167,0.25260239839553833,0.42002081871032715,0.3234001696109772,0.7086936235427856,0.6679391264915466,0.5922985672950745,1.1557817459106445,0.5586268305778503
0.8920865058898926,1.1546077728271484,0.8721074461936951,1.021341323852539,0.8332521915435791,1.431701421737671,1.3146076202392578,1.1716364622116089,1.9294630289077759,1.1524306535720825
0.5324820876121521,1.037131667137146,0.7205766439437866,0.8418582677841187,0.6428678631782532,1.249120831489563,1.33267343044281,1.2035685777664185,1.328568696975708,1.0800307989120483
0.7358750104904175,0.6686784625053406,0.47794827818870544,0.4214499294757843,0.3617880642414093,0.38498997688293457,0.8921499252319336,0.7929203510284424,1.4654414653778076,0.8617361187934875
1.246787667274475,0.7138872146606445,0.4465423822402954,0.535600483417511,0.42520004510879517,0.6461135149002075,0.9204342365264893,0.8408553004264832,1.6265790462493896,0.8847002387046814
0.7995202541351318,0.7669158577919006,0.5199815034866333,0.6617951989173889,0.5427343845367432,1.0043295621871948,0.9201892614364624,0.8055018782615662,1.5583455562591553,0.8036020994186401
0.7976722717285156,0.8702645301818848,0.6599025130271912,0.8054357767105103,0.6513215899467468,1.0992047786712646,1.0702946186065674,0.9363638758659363,1.803924798965454,0.9706230163574219
0.8185967803001404,0.7395490407943726,0.6191678643226624,0.7607513666152954,0.7126848101615906,1.1011316776275635,0.8162453770637512,0.7571962475776672,1.4013357162475586,0.7643173336982727
1.087843656539917,0.5056223273277283,0.4992965757846832,0.38519829511642456,0.33781763911247253,0.5690231919288635,0.8337123990058899,0.7405630350112915,0.9871895909309387,0.49087709188461304
0.8967628479003906,0.32770872116088867,0.41207024455070496,0.49680981040000916,0.2741175889968872,0.6993445754051208,0.38386279344558716,0.2206224650144577,1.5776023864746094,0.3738180994987488
0.7693024277687073,1.2658337354660034,1.3742939233779907,1.3002679347991943,0.9098439812660217,1.4235259294509888,1.4524495601654053,1.4071611166000366,1.276415228843689,0.9193564057350159
0.6483524441719055,0.6360586285591125,0.5944116115570068,0.685741126537323,0.6406861543655396,0.6541346311569214,0.642331600189209,0.561518669128418,1.337237000465393,0.6609559059143066
1.0070973634719849,0.589394748210907,0.34669333696365356,0.5281466245651245,0.4020272195339203,0.8136284947395325,0.7961850762367249,0.7019994258880615,1.8074841499328613,0.7333831191062927
1.0715992450714111,0.4893549382686615,0.2611137628555298,0.4275510609149933,0.27393943071365356,0.660929799079895,0.7160596251487732,0.607477605342865,1.695482850074768,0.6233057379722595
0.7752925157546997,0.5856924057006836,0.34693643450737,0.49011868238449097,0.30570533871650696,0.642276406288147,0.8656225204467773,0.7449035048484802,1.6452391147613525,0.7576889991760254
0.6659368872642517,0.804211437702179,0.49778515100479126,0.6259133815765381,0.45771685242652893,0.8369636535644531,0.9852504134178162,0.8973950743675232,1.5577027797698975,0.8902039527893066
0.8624191284179688,0.7265368700027466,0.5030178427696228,0.5968700051307678,0.5313332080841064,0.9234287738800049,0.8508259654045105,0.8360462784767151,1.6258690357208252,0.8246360421180725
0.6724008917808533,0.7390923500061035,0.6571813225746155,0.8375930786132812,0.7453331351280212,1.1143808364868164,0.759522557258606,0.7232541441917419,1.0753222703933716,0.7864959836006165
0.6194638013839722,0.7523727416992188,0.4579904079437256,0.6308175325393677,0.5204203724861145,1.0182653665542603,0.9846209287643433,0.8854354619979858,1.8510016202926636,0.8172164559364319
0.7415897846221924,0.8542510867118835,0.5573970675468445,0.6550200581550598,0.5752364993095398,0.889041006565094,0.9851478934288025,0.9022458791732788,1.815557599067688,0.9601513743400574
0.6150355339050293,0.9646201133728027,0.7182700634002686,0.7881531715393066,0.6981005668640137,0.9731736183166504,1.0426563024520874,0.9727085828781128,1.7950515747070312,1.0543415546417236
0.9646546840667725,0.6254012584686279,0.39354509115219116,0.4974040389060974,0.3808882236480713,0.6988228559494019,0.8323444724082947,0.7027222514152527,1.6454371213912964,0.7872161269187927
0.8417320251464844,0.9220510125160217,0.6061087250709534,0.7159010171890259,0.333280473947525,0.9150201678276062,1.1420315504074097,1.0545921325683594,1.7779033184051514,0.8099414706230164
1.0732439756393433,0.5860402584075928,0.7360174655914307,0.6928949952125549,0.4706175923347473,0.9917890429496765,0.9640916585922241,0.7881544828414917,0.9743213057518005,0.2721392810344696
0.635952353477478,0.6297662854194641,0.46244633197784424,0.6475465297698975,0.5725060701370239,0.9389308094978333,0.7679560780525208,0.6912049055099487,1.5668892860412598,0.7396367192268372
0.7819454669952393,0.824674665927887,0.708992063999176,0.7281765937805176,0.5314365029335022,0.9829899668693542,0.9327571988105774,0.8921023607254028,1.1601608991622925,0.6676458120346069
0.58913254737854,0.42920222878456116,0.31833240389823914,0.4483696222305298,0.3556971251964569,0.6619632244110107,0.6102277636528015,0.5014641284942627,1.0671534538269043,0.5928394198417664
0.809295654296875,0.7849051356315613,0.5749750733375549,0.7572369575500488,0.5917943120002747,1.1121320724487305,0.9682785868644714,0.8427295684814453,1.1146372556686401,0.8044922351837158
0.789845883846283,1.0509103536605835,0.7665810585021973,0.8947293758392334,0.7654040455818176,1.255051612854004,1.1776193380355835,1.0897486209869385,1.7217168807983398,1.07779860496521
1.197061538696289,0.3484753966331482,0.3349948227405548,0.2508595883846283,0.22414539754390717,0.5029724836349487,0.5805509090423584,0.4449686110019684,1.0377156734466553,0.3876357078552246
1.3924238681793213,1.0637110471725464,0.7697181105613708,0.8366326689720154,0.7468094825744629,0.9715178608894348,1.2323622703552246,1.1684558391571045,1.6919212341308594,1.1704809665679932
0.8315227627754211,0.2618354260921478,0.23272211849689484,0.3720719814300537,0.2570769190788269,0.5201447606086731,0.4917037785053253,0.38023602962493896,1.2618709802627563,0.45679691433906555
0.8339792490005493,0.48214298486709595,0.37080299854278564,0.33452755212783813,0.2613072991371155,0.5338717699050903,0.6834492087364197,0.5838555097579956,1.2992557287216187,0.5625928044319153
0.9394251108169556,0.8607391715049744,0.5813525319099426,0.6946450471878052,0.49967464804649353,0.9011037349700928,1.0780998468399048,0.9597151875495911,1.5804405212402344,0.9892618656158447
0.6144388318061829,0.9265129566192627,0.6750441193580627,0.8412328958511353,0.6443770527839661,1.1874260902404785,1.1521327495574951,1.020911693572998,1.4628510475158691,1.0109347105026245
0.8760496377944946,0.807607114315033,0.5245923399925232,0.570751965045929,0.4803517758846283,0.7256051301956177,1.0400155782699585,0.927173912525177,1.618971586227417,0.9494507312774658
0.8329166769981384,1.0724226236343384,0.8462426662445068,0.9921250343322754,0.7005177736282349,1.3576003313064575,1.2552402019500732,1.1376625299453735,1.778268814086914,1.1045165061950684
0.8183662295341492,0.8523592352867126,0.5755928754806519,0.6859305500984192,0.5635122656822205,0.9000167846679688,1.0248459577560425,0.9146178364753723,1.8466441631317139,0.9719370007514954
0.5872874855995178,0.8021997213363647,0.5659034848213196,0.7344774007797241,0.6067581176757812,1.0883557796478271,0.9916504621505737,0.8847072720527649,1.0446122884750366,0.8916235566139221
0.5695080161094666,0.535912811756134,0.348712682723999,0.4471045136451721,0.3612634241580963,0.7164861559867859,0.6545611023902893,0.5968506336212158,0.8707512617111206,0.6487046480178833
0.6125937104225159,0.7755368947982788,0.5014253854751587,0.6133885383605957,0.520334005355835,0.9533033967018127,0.9765647649765015,0.8316782712936401,1.6903198957443237,0.8778115510940552
0.762301504611969,0.6633176803588867,0.44820040464401245,0.4802117943763733,0.38301733136177063,0.49074891209602356,0.8671014308929443,0.7829317450523376,1.4276601076126099,0.855650007724762
1.6832722425460815,1.3995180130004883,1.0524970293045044,1.1716527938842773,0.85985267162323,1.648870587348938,1.7282289266586304,1.5792453289031982,1.9349822998046875,1.3515992164611816
0.5677886009216309,0.7404401302337646,0.42964521050453186,0.6231216788291931,0.4469650685787201,0.9467496871948242,0.9281405806541443,0.8338340520858765,1.5617704391479492,0.8105423450469971
0.7978411912918091,0.4134492874145508,0.45277905464172363,0.5922646522521973,0.565255880355835,0.8252979516983032,0.44521021842956543,0.37986093759536743,1.2905241250991821,0.46235692501068115
0.8523867726325989,0.4382520020008087,0.37468770146369934,0.4199417531490326,0.194306418299675,0.45386531949043274,0.7189285755157471,0.6201417446136475,0.8231511116027832,0.2108532041311264
0.8094964027404785,0.7686908841133118,0.4941093325614929,0.6012381911277771,0.5305825471878052,0.9776536226272583,0.9882757663726807,0.8703557252883911,1.483962059020996,0.8350456953048706
1.1173497438430786,0.8755133152008057,0.6032114028930664,0.7607112526893616,0.5859711170196533,1.1367154121398926,1.0256074666976929,0.9598223567008972,1.986966609954834,0.9100501537322998
1.2180660963058472,1.1743122339248657,0.880039632320404,0.9852252006530762,0.4344044029712677,1.4244036674499512,1.3445305824279785,1.232384204864502,2.222928047180176,1.1049429178237915
0.6027235984802246,1.2733572721481323,1.464178204536438,1.3865644931793213,0.8792086839675903,1.4158507585525513,1.552607774734497,1.4814001321792603,1.08201265335083,0.8612697720527649
0.7057221531867981,0.4619641900062561,0.3431590795516968,0.5410937666893005,0.49138087034225464,0.751731276512146,0.6821529865264893,0.5524112582206726,0.8994573950767517,0.6181020736694336
0.6685483455657959,0.7290604710578918,0.6439352035522461,0.7103030681610107,0.5384270548820496,0.6876938939094543,0.6787005066871643,0.6607421636581421,1.1798017024993896,0.6228031516075134
0.6332313418388367,0.6698078513145447,0.5221303105354309,0.709505021572113,0.5809498429298401,0.9865455031394958,0.8289411664009094,0.7217001914978027,0.9500776529312134,0.7256752848625183
0.7304974794387817,0.9732651710510254,0.688137412071228,0.7933133840560913,0.6772899627685547,1.117055058479309,1.1461529731750488,1.062767505645752,1.7144033908843994,1.0483896732330322
0.7371017336845398,1.0031702518463135,0.7506507039070129,0.8587399125099182,0.8264872431755066,1.311775803565979,1.1390293836593628,1.102532982826233,0.9015229940414429,0.8696932196617126
0.5496941208839417,0.8702937960624695,0.6562327742576599,0.8173494935035706,0.5584588050842285,1.233292818069458,1.081272006034851,0.965635359287262,0.8417798280715942,0.8923249840736389
0.3675801157951355,0.7689058780670166,0.6311761140823364,0.5156258344650269,0.41060739755630493,0.44049543142318726,0.8874990344047546,0.8303259611129761,1.1965484619140625,0.829229474067688
0.9214739203453064,0.47293415665626526,0.42956435680389404,0.5996720194816589,0.4883229732513428,0.8469244837760925,0.6537113189697266,0.5530775189399719,0.9422066807746887,0.5702489018440247
0.920264720916748,1.185225009918213,1.0430854558944702,1.2120400667190552,1.015612244606018,1.6255472898483276,1.2978384494781494,1.2089366912841797,1.176316499710083,1.1521342992782593
1.0422512292861938,0.45283642411231995,0.3440791964530945,0.4850732982158661,0.42362624406814575,0.7733275890350342,0.6852394342422485,0.4841853082180023,1.0666961669921875,0.5658895969390869
0.7788578867912292,0.94215327501297,0.6511883735656738,0.7448928356170654,0.6857581734657288,0.907831609249115,1.0478914976119995,0.9522572159767151,1.7638521194458008,1.0144950151443481
0.5426735877990723,0.6073320508003235,0.37225261330604553,0.559954822063446,0.43803417682647705,0.7909015417098999,0.8368737697601318,0.6937233209609985,1.0820285081863403,0.7534700632095337
1.117841362953186,0.8747342824935913,0.5982530117034912,0.6375952959060669,0.5701532959938049,0.8411231637001038,1.0267958641052246,0.9506654739379883,1.5234663486480713,1.0168721675872803
0.5536293387413025,0.5459713339805603,0.384684294462204,0.5791670083999634,0.5079079270362854,0.8641992807388306,0.7359291911125183,0.5752997994422913,1.0398443937301636,0.6504925489425659
0.8579291701316833,1.0712653398513794,0.7775202393531799,0.9412121176719666,0.5718767046928406,1.3112857341766357,1.2611474990844727,1.183735728263855,2.1042349338531494,1.102888822555542
1.0924088954925537,0.7481210827827454,0.4948590099811554,0.6047641038894653,0.48947787284851074,0.876797080039978,0.9319879412651062,0.8306312561035156,1.8287535905838013,0.8758075833320618
0.8959158658981323,0.7933135032653809,0.5330908894538879,0.703344464302063,0.48735153675079346,1.0854777097702026,1.031039834022522,0.92751145362854,1.3472293615341187,0.8259430527687073
0.5277976989746094,0.7277847528457642,0.7398019433021545,0.8868452906608582,0.8285040855407715,1.167790174484253,0.7372689843177795,0.6694597005844116,1.5130037069320679,0.7275224924087524
0.7565848231315613,0.9992411136627197,0.7722052335739136,0.8177453279495239,0.5161424875259399,0.9634711742401123,1.2558773756027222,1.143418550491333,1.8498724699020386,1.0528136491775513
1.3225715160369873,1.8866547346115112,1.7814209461212158,1.8193602561950684,1.4426755905151367,2.0626399517059326,2.041382312774658,1.9073530435562134,1.9780727624893188,1.6580774784088135
0.7184074521064758,0.297956258058548,0.3420422375202179,0.49835914373397827,0.42245903611183167,0.6994483470916748,0.4013904631137848,0.34067586064338684,1.2261476516723633,0.44333574175834656
1.0609886646270752,0.7514894604682922,0.49296149611473083,0.6251185536384583,0.5043485760688782,0.9113218784332275,0.9970583319664001,0.8172565698623657,1.8236640691757202,0.8392614722251892
0.4096033573150635,0.529000461101532,0.635189950466156,0.7344909906387329,0.5016786456108093,0.9847353100776672,0.765362024307251,0.6839317083358765,1.6969358921051025,0.470223993062973
0.5135688185691833,0.7098206877708435,0.5680753588676453,0.7304721474647522,0.5951067805290222,1.033478021621704,0.8809117674827576,0.7532683610916138,0.9669281840324402,0.821464478969574
1.0058835744857788,1.1581953763961792,0.9160946011543274,1.0780307054519653,0.9314613938331604,1.5271611213684082,1.273294448852539,1.1673858165740967,1.6943217515945435,1.0879226922988892
0.6590758562088013,0.7386201620101929,0.4665319621562958,0.49090099334716797,0.39967381954193115,0.5725593566894531,0.9281538128852844,0.8374744653701782,1.5373799800872803,0.8932867050170898
0.332300066947937,0.3703632950782776,0.5324416756629944,0.5709596872329712,0.34778422117233276,0.8102843761444092,0.4221630096435547,0.28912821412086487,1.5788220167160034,0.28216055035591125
1.0763460397720337,0.707633912563324,0.4182843863964081,0.5984569787979126,0.4693240821361542,0.9775578379631042,0.9201431274414062,0.8102430105209351,1.715192437171936,0.7615123391151428
0.929318368434906,1.057895302772522,0.7201951742172241,0.8293967843055725,0.6742866039276123,1.2215487957000732,1.2720398902893066,1.1844470500946045,1.6771398782730103,1.0932780504226685
0.5974274277687073,0.7277920842170715,0.5411166548728943,0.5662422180175781,0.5185179710388184,0.48538610339164734,0.7209787368774414,0.645484983921051,1.3364148139953613,0.7332403659820557
1.0591706037521362,0.49398890137672424,0.3449982702732086,0.5253508687019348,0.4389828145503998,0.7905781865119934,0.6860185861587524,0.6345320343971252,1.4052743911743164,0.6267154812812805
0.5247104167938232,0.9329703450202942,0.687276303768158,0.8300571441650391,0.7131499648094177,1.2269176244735718,1.0504684448242188,0.9680545926094055,1.1596789360046387,0.9412258863449097
0.9147434830665588,0.8938739895820618,0.6842692494392395,0.8285602331161499,0.7551339864730835,1.230680227279663,1.0352330207824707,0.9584832191467285,1.8365243673324585,0.9107014536857605
0.7720931172370911,0.5942436456680298,0.5712640285491943,0.6589269042015076,0.5961721539497375,0.8348193764686584,0.7076085805892944,0.6466498970985413,1.1465774774551392,0.695268452167511
0.9225593209266663,1.247728943824768,0.8631739616394043,1.0004807710647583,0.43990692496299744,1.3563390970230103,1.5239003896713257,1.4141004085540771,1.7422361373901367,1.1042568683624268
0.7470709681510925,0.8639413118362427,0.5709505081176758,0.6572374701499939,0.4911867380142212,0.9087726473808289,1.0887377262115479,0.9901896715164185,1.7310748100280762,0.9693214297294617
0.6985654830932617,0.5059460997581482,0.3510541319847107,0.44702959060668945,0.38643789291381836,0.750407874584198,0.66803377866745,0.6069290041923523,1.0133233070373535,0.567583441734314
0.7877975702285767,0.8635132312774658,0.5571402311325073,0.6354374885559082,0.5029394030570984,0.9231345653533936,1.0662682056427002,0.9488638043403625,1.7640726566314697,0.959286630153656
0.8778672218322754,0.8737151622772217,0.6304312944412231,0.8032602667808533,0.6608178019523621,1.2012361288070679,1.1216204166412354,1.0022704601287842,1.994625210762024,0.9499706625938416
1.472249150276184,1.872873067855835,1.5308613777160645,1.6773637533187866,1.238734483718872,2.197382926940918,2.197246789932251,2.0626795291900635,1.945246934890747,1.7394983768463135
0.9332614541053772,0.26163673400878906,0.41108667850494385,0.4667699635028839,0.24698615074157715,0.43320462107658386,0.42670169472694397,0.28351664543151855,1.2408026456832886,0.2702394127845764
0.7171920537948608,0.8241143822669983,0.7144975662231445,0.7346537113189697,0.5425620675086975,0.7512848377227783,0.8831354975700378,0.7836605906486511,1.1405713558197021,0.8401092290878296
0.7441306710243225,0.6264898180961609,0.6002890467643738,0.6966283321380615,0.7038066983222961,0.9468041062355042,0.6393968462944031,0.5313993692398071,1.2350775003433228,0.6357212066650391
0.6334229111671448,0.7585511803627014,0.4391665756702423,0.5480859875679016,0.4134453535079956,0.9246686100959778,0.9111066460609436,0.8506472110748291,1.2647490501403809,0.7951247096061707
0.3153427541255951,0.5604227185249329,0.6284310221672058,0.7745070457458496,0.38478124141693115,0.9739435911178589,0.5520040392875671,0.5570188164710999,1.6296613216400146,0.6114997267723083
1.0167957544326782,0.6611289381980896,0.4268275797367096,0.4875125288963318,0.4051666557788849,0.5903278589248657,0.8870408535003662,0.7941385507583618,1.3406544923782349,0.8747793436050415
0.9354197978973389,0.9917727112770081,0.7033506035804749,0.8344635367393494,0.5594709515571594,1.264009952545166,1.181586742401123,1.079867959022522,1.1696020364761353,0.9106431007385254
0.7102441191673279,1.4760321378707886,1.382212519645691,1.3253976106643677,0.9543673992156982,1.19060480594635,1.4872978925704956,1.4556591510772705,1.2520861625671387,1.0710970163345337
0.7502358555793762,0.3861359655857086,0.21632182598114014,0.3767918348312378,0.3328299820423126,0.6332159042358398,0.586513102054596,0.5099703073501587,1.570112943649292,0.5471672415733337
0.617599368095398,0.6570509672164917,0.3894297778606415,0.4357847571372986,0.380306214094162,0.6063299775123596,0.836787760257721,0.7578492164611816,1.4819988012313843,0.7924354672431946
1.0362911224365234,0.5036834478378296,0.32791122794151306,0.5346145033836365,0.40304654836654663,0.8115972876548767,0.7185236215591431,0.5856509804725647,1.765047311782837,0.6037678718566895
0.7179027795791626,0.8841519951820374,0.6223419308662415,0.7702462673187256,0.4805435836315155,0.9769957661628723,1.107081413269043,0.9945436716079712,1.8894827365875244,1.023919939994812
0.5965554118156433,1.1835441589355469,1.0230869054794312,1.1447817087173462,0.9478862285614014,1.5036675930023193,1.5294796228408813,1.3899784088134766,1.05043363571167,0.8835347294807434
0.6407520771026611,0.45462822914123535,0.3405049443244934,0.577707827091217,0.4764688014984131,0.7498722076416016,0.6015892624855042,0.5359813570976257,1.0000802278518677,0.5726770758628845
0.6909823417663574,1.2127586603164673,0.9426408410072327,1.0342010259628296,0.871181070804596,1.2727068662643433,1.294209361076355,1.2220913171768188,2.066237688064575,1.2830336093902588
0.5635470151901245,0.8786459565162659,0.6863463521003723,0.8383994102478027,0.7827091813087463,1.2209060192108154,0.9906004071235657,0.9117805361747742,1.1776649951934814,0.8589121699333191
0.9096937775611877,0.6668809652328491,0.4289962351322174,0.584144115447998,0.36906853318214417,0.8665569424629211,0.8891478776931763,0.7855134010314941,1.3886879682540894,0.6902410387992859
0.5222977995872498,0.7793636918067932,0.8035263419151306,0.7823214530944824,0.6029094457626343,0.7944568395614624,0.7291651964187622,0.6716153621673584,1.125558614730835,0.7459450364112854
1.0774221420288086,0.49970340728759766,0.40731653571128845,0.5336055159568787,0.4011741876602173,0.7582658529281616,0.640282928943634,0.5548461675643921,1.0092132091522217,0.6976451873779297
0.40533843636512756,0.7631410956382751,0.53466796875,0.6170650720596313,0.5131897926330566,0.7965913414955139,0.8961070775985718,0.8482257127761841,1.2393540143966675,0.9180636405944824
0.3953627943992615,0.7754763960838318,0.644069254398346,0.8157589435577393,0.7556225061416626,1.1370562314987183,0.8194875121116638,0.7359215021133423,1.1425217390060425,0.7057725787162781
0.6545260548591614,0.7272475361824036,0.5041670203208923,0.6234692931175232,0.542175829410553,0.9523380994796753,0.8822283148765564,0.7855144739151001,1.469458818435669,0.833242654800415
1.167845606803894,0.9613075256347656,0.6517520546913147,0.7523542046546936,0.39277419447898865,1.1354957818984985,1.1302329301834106,1.0347437858581543,1.97361159324646,0.9525555372238159
0.9920660257339478,0.7216785550117493,0.5472487211227417,0.7614380717277527,0.6109651923179626,1.03587806224823,0.8927102088928223,0.7790948748588562,1.8415963649749756,0.7995163202285767
0.8348913788795471,1.0257371664047241,0.7274173498153687,0.8371867537498474,0.4972051978111267,1.0532649755477905,1.2558255195617676,1.1336066722869873,1.6396028995513916,1.1113827228546143
0.9489873647689819,0.594622015953064,0.3633018732070923,0.5976381301879883,0.4395439028739929,0.8824867010116577,0.811915934085846,0.7400997877120972,1.558297872543335,0.6557239294052124
0.8156027793884277,1.2495485544204712,1.012792706489563,1.163583755493164,0.9960960149765015,1.6224795579910278,1.394040822982788,1.300066590309143,1.2930951118469238,1.2019188404083252
