0,1,2,3,4,5,6,7,8,9
4,8,0,3,1,3,0,0,1,0
2,120,111,119,0,1,111,1,113,113
2,35,29,33,32,1,30,0,0,0
1,33,108,120,108,1,107,0,116,117
3,45,28,38,0,2,0,0,0,32
1,31,28,31,31,1,28,0,29,29
1,31,28,30,31,1,29,0,0,29
1,39,37,7,42,1,35,0,0,0
133,7,126,7,127,131,127,1,127,127
133,6,127,2,128,131,128,0,129,128
2,120,118,120,0,1,0,0,0,119
2,34,31,34,0,1,0,0,0,0
2,31,29,6,132,1,130,0,0,0
1,33,27,32,28,1,27,0,0,27
2,9,17,6,133,1,130,0,0,0
2,32,27,31,0,1,28,0,0,29
2,33,27,33,0,2,0,0,0,0
135,35,128,0,132,0,130,0,131,128
134,2,0,3,130,3,129,0,130,0
132,3,0,3,128,131,128,0,128,127
3,121,28,38,0,3,0,0,0,32
2,35,27,31,32,1,28,0,0,27
135,97,0,64,0,5,0,0,130,0
3,36,27,34,0,2,0,0,0,0
135,1,0,1,131,2,130,0,130,0
4,12,128,10,130,5,129,0,129,128
96,110,86,108,88,102,87,0,88,88
2,32,29,32,31,1,29,0,0,0
1,29,27,31,32,0,28,0,0,28
1,7,127,4,129,1,128,0,129,128
2,31,25,30,31,1,26,0,0,0
3,70,49,58,0,3,0,0,0,0
2,30,27,7,135,1,0,0,0,0
3,11,11,8,0,3,0,0,0,0
135,3,0,3,130,4,130,1,130,128
131,4,126,1,127,130,127,0,127,126
132,102,3,102,4,131,3,0,127,4
2,30,26,31,30,2,0,0,0,0
136,0,126,1,128,131,127,1,128,128
3,42,29,38,0,2,0,0,0,31
2,31,27,31,0,1,27,0,0,0
135,5,128,5,129,131,128,1,130,128
3,95,42,75,0,2,0,0,0,52
2,34,27,32,32,1,28,0,0,29
2,39,27,34,32,1,27,0,0,28
132,8,126,7,0,3,127,0,128,127
2,48,27,36,22,2,0,0,0,27
4,47,26,40,0,3,0,0,0,0
135,5,128,5,129,131,129,1,130,128
1,32,27,32,31,0,28,0,29,29
1,30,27,5,135,0,26,0,0,0
131,2,0,2,127,129,126,0,127,126
4,41,29,37,1,3,0,0,0,0
1,32,28,32,31,1,29,0,29,29
1,30,27,31,29,1,27,0,0,0
2,31,28,31,0,1,0,0,0,0
132,2,126,2,128,131,127,0,128,127
2,32,10,7,11,1,10,0,0,0
2,63,0,66,0,2,0,0,0,0
2,34,29,33,0,2,0,0,0,0
134,36,128,2,131,2,130,1,131,128
1,34,28,32,30,1,27,0,28,29
136,103,29,81,132,2,130,0,131,29
2,33,26,31,29,1,27,0,0,0
2,32,28,31,0,2,0,0,0,0
0,19,15,19,35,1,33,0,33,32
135,5,123,5,128,131,126,1,127,128
2,9,19,6,135,1,0,0,0,0
3,119,50,85,133,4,12,0,25,12
2,33,28,33,30,1,28,0,0,29
2,118,108,112,0,1,108,1,110,110
2,32,26,7,0,2,0,0,0,0
0,99,31,46,129,1,130,0,131,20
1,33,26,33,30,1,28,0,0,29
3,34,30,34,0,2,0,0,0,0
132,53,1,9,1,131,0,1,127,127
2,30,28,31,135,1,29,0,0,0
3,61,113,39,1,3,0,1,0,114
3,44,0,1,134,2,0,0,0,0
3,120,110,119,0,2,0,1,0,0
136,3,1,4,133,5,130,1,131,2
2,31,27,31,0,1,28,0,0,0
3,44,28,38,0,2,0,0,0,29
2,31,28,31,0,2,0,0,0,0
2,33,27,32,135,1,0,0,0,0
2,119,27,35,0,2,0,0,0,30
1,31,28,30,33,1,29,0,0,29
1,119,110,114,110,1,109,0,111,117
1,33,28,31,29,1,28,0,0,28
134,7,128,2,130,2,129,0,130,0
2,35,28,33,0,1,29,0,0,29
136,3,128,4,131,131,130,1,131,128
4,47,30,40,1,3,0,0,0,32
1,117,111,6,131,1,130,0,0,0
1,35,27,33,30,1,27,0,0,29
3,117,13,8,131,2,0,0,0,0
135,2,0,2,131,3,130,1,130,0
1,34,27,32,29,1,27,0,0,29
135,2,0,3,131,3,130,0,131,0
132,4,0,2,128,131,127,0,128,0
3,123,30,36,0,2,0,1,0,30
132,4,126,5,127,131,127,1,128,127
1,115,113,115,0,0,117,0,0,0
133,9,0,6,128,131,128,0,128,127
2,35,29,31,0,2,0,0,0,0
2,31,24,31,0,1,0,0,0,0
3,36,31,36,0,2,0,0,0,0
3,31,0,31,0,2,0,0,0,0
2,10,10,6,133,1,130,0,0,0
3,32,27,7,0,2,0,0,0,0
2,34,28,7,135,1,0,0,0,0
2,33,28,31,28,1,27,0,0,0
133,7,0,3,128,131,128,0,128,127
1,31,28,32,32,1,29,0,0,30
3,33,30,33,0,2,0,0,0,0
1,8,6,6,9,1,0,0,0,0
2,30,26,7,135,1,0,0,0,0
0,113,111,114,135,0,109,1,114,113
3,35,32,35,0,2,0,0,0,0
2,33,27,31,0,1,0,0,0,28
135,4,128,4,129,131,128,1,129,128
134,9,0,7,131,3,129,0,130,0
3,13,127,9,130,2,128,0,129,128
2,9,54,7,133,1,0,0,0,0
1,32,26,31,30,1,27,0,28,28
1,31,28,31,31,1,28,0,0,0
3,41,27,36,0,2,0,0,0,31
135,4,128,4,129,131,130,1,130,128
2,33,28,32,29,1,28,0,0,0
3,67,11,16,12,2,0,0,0,0
135,5,128,6,130,131,130,1,130,128
4,9,126,8,0,3,127,0,128,127
2,118,110,116,0,1,0,0,0,0
1,30,25,29,28,1,25,0,0,26
136,3,126,3,132,131,130,1,131,128
2,70,25,59,26,2,26,0,0,27
2,9,26,7,133,2,0,0,0,0
133,2,128,3,130,131,129,0,130,128
3,8,128,7,129,2,128,0,129,128
3,57,127,7,129,3,128,0,129,128
133,6,127,2,0,131,128,0,128,128
2,32,27,31,0,1,27,0,0,28
131,119,125,2,126,1,126,0,127,126
134,20,0,11,126,5,0,0,0,0
1,32,27,33,31,1,29,0,0,28
132,120,126,4,0,3,0,0,128,127
1,28,25,6,135,1,26,0,0,0
133,0,128,0,129,131,129,0,129,128
2,122,120,122,0,1,0,0,0,121
3,42,0,7,132,3,130,0,131,0
2,101,65,99,129,3,129,0,130,41
136,6,0,1,133,2,130,0,0,0
1,113,111,5,116,0,112,0,0,112
1,5,128,0,132,0,130,0,131,128
1,33,28,30,29,1,27,0,0,28
2,40,108,120,109,2,108,1,0,118
135,1,0,2,131,3,130,1,130,0
133,1,128,2,129,131,128,0,129,128
2,36,109,120,110,1,109,1,111,118
135,0,128,1,131,1,130,0,130,128
125,18,120,129,121,124,120,1,121,120
136,1,128,1,132,1,130,1,131,0
1,32,26,32,31,0,28,0,0,27
3,42,40,42,0,2,0,1,0,0
3,33,27,32,0,2,0,0,0,0
3,117,128,7,131,2,129,0,0,0
3,122,27,35,0,2,0,0,0,0
2,31,28,30,28,1,28,0,0,28
133,1,127,1,129,131,128,0,128,128
2,34,30,34,0,1,0,0,0,0
2,115,109,6,135,1,0,0,0,0
3,45,127,7,0,2,128,0,0,0
134,49,128,3,1,3,130,0,130,128
134,2,128,0,130,0,129,0,130,128
1,32,28,32,29,1,29,0,0,29
1,32,28,31,28,1,26,0,0,29
2,116,114,8,135,2,0,0,0,0
134,2,128,3,130,131,129,1,130,128
2,34,30,34,0,2,0,0,0,0
2,15,10,8,131,1,130,0,0,0
134,44,128,2,130,2,129,0,129,128
3,32,0,7,0,3,0,0,0,0
2,118,109,118,133,1,109,1,111,110
2,32,27,32,0,2,0,0,0,0
136,2,0,2,1,3,130,1,131,0
1,34,27,32,30,1,28,0,0,28
2,32,30,32,0,1,0,0,0,0
2,118,128,117,131,1,130,0,0,0
134,4,128,5,128,131,128,1,129,128
3,30,17,7,132,2,0,0,0,0
135,2,128,0,132,0,130,0,131,128
135,2,128,3,130,131,130,1,130,128
135,8,128,6,131,2,130,0,131,0
4,42,28,37,1,3,0,0,0,0
132,5,0,2,0,130,127,0,127,127
133,1,123,2,128,131,127,1,127,128
2,30,26,6,29,1,26,0,0,0
3,58,11,43,11,2,22,0,25,29
2,32,25,29,31,1,0,0,0,0
133,8,0,5,0,131,0,0,0,128
132,3,0,3,128,131,127,0,128,127
135,3,128,4,129,131,128,1,129,128
3,118,27,33,0,2,0,1,0,0
135,4,128,5,130,131,130,1,130,128
2,34,28,32,0,1,28,0,0,28
2,35,28,33,0,2,0,0,0,30
1,116,113,115,135,0,113,0,0,114
135,7,0,3,131,2,130,0,131,0
1,33,28,32,28,1,29,0,0,29
2,37,25,32,31,1,27,0,0,0
4,9,127,7,0,3,128,0,129,128
134,8,128,6,131,2,130,0,130,0
2,32,27,31,135,1,26,0,0,0
3,36,29,34,0,2,0,0,0,0
3,9,127,7,129,2,128,0,128,127
135,2,128,2,131,131,130,1,131,128
3,8,126,6,127,3,127,0,128,127
2,32,28,32,0,1,0,0,0,0
2,35,27,33,0,1,0,0,0,28
2,33,27,7,0,2,0,0,0,0
135,1,128,2,132,131,130,1,131,128
130,61,0,61,1,130,0,1,124,1
2,31,26,31,135,1,0,0,0,0
134,10,128,8,1,4,0,1,130,128
4,11,128,9,129,4,129,0,129,128
134,1,128,2,129,131,129,0,130,128
2,39,28,34,0,2,0,0,0,29
1,31,25,30,135,0,27,0,0,27
136,1,128,2,132,2,130,1,131,128
1,35,23,31,25,1,23,0,0,27
3,40,29,36,0,2,0,0,0,0
2,34,26,7,27,2,0,0,0,0
131,1,125,1,0,129,126,0,126,126
2,32,29,32,0,2,0,0,0,0
3,39,30,35,0,2,0,0,0,0
2,34,27,32,0,2,0,0,0,0
135,1,0,2,131,3,129,0,130,0
3,39,27,34,0,2,0,0,0,0
2,30,28,31,0,1,0,0,0,0
3,38,0,34,0,3,0,0,0,0
1,32,23,7,25,1,23,0,0,23
136,6,0,1,133,2,130,0,0,0
2,31,26,31,0,1,0,0,0,0
136,5,128,5,132,6,130,1,131,128
1,121,116,120,119,1,119,0,119,119
1,32,28,5,32,1,29,0,0,0
3,117,128,8,132,2,130,0,0,0
3,40,30,35,0,2,0,0,0,30
2,31,29,32,0,1,0,1,0,0
1,118,111,117,133,0,130,0,0,112
1,99,29,51,129,1,128,0,130,38
3,9,127,8,130,3,128,0,129,128
134,7,128,4,0,2,130,0,130,0
135,1,0,1,132,3,130,0,131,0
2,30,27,6,0,2,0,0,0,0
3,9,111,7,135,2,0,0,0,0
134,2,128,3,130,131,129,0,130,128
136,3,128,3,132,131,130,1,131,128
2,32,29,32,0,1,0,0,0,0
134,1,0,2,130,3,129,0,130,128
131,1,125,1,126,129,126,0,126,126
132,4,126,4,127,131,127,1,128,127
2,30,28,6,31,1,0,0,0,0
2,34,27,31,0,2,0,0,0,28
3,40,28,35,0,2,0,0,0,0
2,30,27,31,30,1,27,0,0,28
2,9,10,6,132,1,0,0,0,0
135,3,0,3,131,131,130,0,130,128
132,7,0,4,2,130,126,0,127,126
135,45,128,1,131,2,130,0,130,128
134,7,128,2,0,2,129,0,130,128
2,31,28,6,33,1,0,0,0,0
2,39,128,6,131,1,130,0,130,128
2,33,30,6,31,1,30,0,0,0
134,3,128,3,129,131,128,1,129,128
2,46,22,35,24,2,23,0,0,26
136,1,0,1,133,2,0,0,0,0
132,2,0,3,1,131,127,0,128,127
3,32,28,31,0,2,0,0,0,0
136,97,115,0,132,125,115,0,131,121
3,122,26,34,0,2,0,0,0,29
3,43,128,7,130,2,129,0,130,128
2,18,16,7,134,1,0,0,0,0
135,2,0,2,131,3,130,0,131,0
5,95,45,78,0,5,0,0,0,0
3,118,108,112,132,2,130,0,131,0
133,1,128,2,130,131,129,1,130,128
1,20,15,5,18,0,15,0,16,15
134,1,128,2,130,131,129,0,130,128
135,1,128,1,131,2,130,0,131,128
134,7,128,1,130,131,129,0,130,128
133,2,128,2,129,131,129,1,129,128
4,81,52,68,0,3,0,0,0,0
136,0,128,0,133,1,130,1,131,128
136,100,40,51,129,2,129,0,131,40
1,118,109,117,135,0,108,1,118,116
136,0,128,0,131,131,130,1,131,128
1,29,26,30,135,0,27,0,0,27
2,31,27,31,29,1,27,0,0,28
2,9,10,7,133,1,0,0,0,0
1,37,28,34,33,0,31,0,31,30
2,37,109,119,0,2,109,1,0,112
3,33,28,32,0,2,0,0,0,0
35,66,30,61,31,34,30,1,31,30
2,32,29,6,31,1,0,0,0,0
2,41,23,34,24,2,24,0,0,0
2,9,19,6,132,1,130,0,0,0
1,32,25,5,28,0,26,0,0,27
136,1,0,2,132,3,130,0,131,0
2,31,27,32,132,1,130,0,0,0
136,0,128,0,133,1,130,1,131,128
3,35,28,31,0,2,0,0,0,0
135,0,128,0,132,0,130,0,131,128
1,30,25,29,30,1,27,0,0,26
1,28,26,6,30,1,27,0,0,0
135,6,128,1,131,1,130,0,131,0
133,5,127,2,128,131,128,0,128,127
135,1,0,1,131,131,130,0,130,0
3,35,28,33,0,2,0,0,0,0
2,35,29,34,0,2,0,0,0,30
3,41,29,35,0,2,0,0,0,0
131,8,0,5,126,129,0,0,126,125
3,123,121,123,0,2,0,0,0,0
133,8,1,4,129,131,128,0,129,128
133,0,127,1,129,131,128,0,128,128
2,34,28,32,30,1,28,0,0,28
2,43,31,39,0,1,31,0,0,32
2,16,14,7,135,1,0,0,0,0
1,7,128,5,135,0,127,0,131,128
3,122,113,121,0,3,0,0,0,0
2,89,109,35,110,1,109,1,111,119
2,52,128,52,131,1,130,0,130,128
2,37,26,8,19,2,16,0,0,0
136,0,128,0,132,1,130,1,131,128
2,30,27,30,0,1,0,0,0,27
1,32,28,32,135,0,28,0,29,29
133,6,127,1,129,131,128,0,129,128
135,4,128,4,130,131,130,1,130,128
4,52,127,4,129,3,128,0,129,128
4,10,128,9,129,4,128,0,129,128
1,54,32,39,26,1,31,0,32,32
3,42,27,35,0,2,0,0,0,29
2,8,10,6,132,1,0,0,0,0
2,33,29,32,0,1,29,0,0,29
3,71,49,55,53,2,0,0,0,0
135,5,128,5,129,131,130,1,130,128
1,34,28,32,32,1,29,0,0,29
2,30,24,7,30,1,28,0,0,0
3,39,28,34,0,2,0,0,0,0
2,119,109,118,132,1,109,0,114,117
1,34,29,32,31,1,29,0,0,0
3,122,26,38,0,2,0,0,0,28
136,86,0,10,0,3,0,0,0,0
2,34,28,32,0,1,27,0,0,29
136,87,89,92,102,125,102,1,103,101
131,4,125,5,126,129,126,1,126,126
136,0,128,0,132,1,130,0,131,0
133,57,127,3,1,131,128,0,128,127
133,7,127,5,129,131,128,0,129,128
3,56,29,42,30,3,11,0,0,11
2,36,27,33,0,2,0,0,0,0
3,21,19,22,134,2,0,0,0,0
1,32,27,31,30,0,28,0,29,28
2,7,128,4,130,1,129,0,130,128
2,119,110,119,114,1,110,0,0,117
1,31,28,31,33,1,29,0,0,29
1,33,26,32,28,1,26,0,0,28
136,79,0,8,131,4,130,0,131,0
136,2,0,3,132,3,130,0,131,0
135,2,0,3,1,3,130,0,131,0
1,36,27,7,29,1,27,0,0,26
136,0,0,0,134,1,130,0,131,0
3,32,28,31,0,2,0,0,0,0
131,7,0,3,1,129,0,0,127,126
133,9,127,8,0,3,128,0,129,128
2,32,27,31,0,1,28,0,0,29
2,35,31,35,0,2,0,0,0,31
2,32,28,31,0,1,0,0,0,0
132,2,0,3,127,131,127,0,128,127
2,33,28,32,0,1,0,0,0,0
2,31,27,31,32,1,28,0,0,28
4,116,28,37,1,3,0,0,0,30
3,117,128,116,132,2,0,0,0,0
3,49,25,41,0,3,0,0,0,0
133,8,127,7,129,2,128,0,129,128
134,1,0,2,130,131,129,0,130,128
2,32,27,32,31,1,27,0,0,28
136,4,0,1,132,2,130,0,131,0
133,6,127,4,129,2,128,0,129,128
3,69,46,61,48,2,0,0,0,0
132,7,0,4,128,131,127,0,128,0
1,29,26,6,28,1,26,0,0,0
2,31,27,6,0,1,0,0,0,0
2,107,66,105,134,3,32,0,33,32
3,7,128,2,131,2,129,0,130,128
1,19,17,8,132,1,129,0,0,8
2,39,29,35,0,1,30,0,31,31
136,3,128,4,132,131,130,1,131,128
3,42,0,7,132,3,130,0,0,0
1,37,26,32,29,1,27,0,27,27
3,71,117,121,118,2,117,0,0,118
136,1,128,2,133,2,130,1,131,128
136,1,128,1,132,2,130,1,131,128
134,2,128,3,131,131,130,1,130,128
2,31,28,32,0,1,0,0,0,0
134,122,128,1,0,2,129,0,130,128
3,120,112,119,133,2,130,0,0,0
3,56,128,6,129,2,129,0,129,128
121,9,25,42,0,130,105,1,105,27
3,39,16,22,0,2,0,0,0,0
133,2,0,2,128,131,128,0,128,128
135,2,128,2,131,3,130,1,130,128
2,32,27,30,0,2,0,0,0,0
2,32,29,32,0,1,0,0,0,0
2,125,122,124,0,1,121,0,0,123
135,2,0,2,130,3,130,0,130,0
3,34,28,33,0,2,0,0,0,0
132,7,127,2,128,2,127,0,128,127
132,8,0,4,128,131,128,0,128,1
3,104,72,101,135,3,130,0,0,46
3,41,28,36,0,2,0,0,0,30
132,5,126,2,0,130,126,0,127,126
2,35,28,33,0,1,28,0,0,29
2,119,110,118,111,1,110,1,0,114
1,7,128,5,133,1,130,0,0,0
136,66,0,7,131,5,130,0,131,1
2,40,27,35,0,2,0,1,0,30
1,119,117,119,122,0,118,0,119,117
2,32,29,7,29,1,0,0,0,0
3,121,116,120,0,2,0,0,0,0
133,2,128,3,129,131,129,1,129,128
2,118,116,6,0,1,0,0,0,0
136,1,0,1,132,3,130,1,131,0
132,4,126,5,127,131,127,1,127,127
133,3,127,4,129,131,128,0,129,128
2,36,28,33,132,2,130,0,0,0
3,33,29,32,0,2,0,0,0,0
1,32,26,32,31,1,28,0,0,28
3,117,107,116,131,2,129,0,131,0
133,7,0,4,128,131,128,0,128,128
3,48,28,41,0,2,0,0,0,32
2,119,108,118,0,1,129,1,131,117
135,1,0,2,131,131,130,0,130,0
3,115,113,7,0,2,0,0,0,0
2,31,27,6,0,1,0,0,0,0
1,30,28,30,35,1,25,0,0,0
2,31,27,31,0,1,0,0,0,0
133,2,0,3,129,131,129,0,129,128
135,3,1,4,130,4,130,1,130,128
136,100,25,83,129,2,129,0,130,41
2,35,30,34,0,1,30,0,0,31
3,33,30,8,133,2,0,0,0,0
133,8,0,4,128,131,0,0,128,128
1,32,28,31,29,1,28,0,0,29
2,33,26,31,29,1,28,0,0,0
133,8,127,6,128,3,128,0,129,128
132,57,126,6,0,3,127,0,128,127
2,32,28,32,29,1,28,0,0,0
1,31,27,31,32,0,28,0,29,29
2,34,28,31,30,1,28,0,0,0
134,5,128,2,130,2,129,0,130,128
3,92,111,36,112,2,111,1,112,112
2,41,27,35,29,2,28,0,0,0
2,32,29,6,0,1,0,0,0,0
0,28,26,4,27,0,26,0,0,27
1,122,121,4,0,1,0,0,0,0
5,11,126,10,128,4,127,0,0,0
134,0,128,1,131,1,130,0,130,128
133,99,116,3,1,131,125,1,126,127
2,13,11,7,16,1,0,0,0,0
135,1,128,1,131,131,130,1,131,128
136,1,0,1,132,2,130,0,131,0
1,28,27,28,32,0,29,0,0,27
3,21,20,7,133,2,130,0,0,0
135,1,0,1,132,2,130,0,131,0
2,32,27,6,32,1,29,0,0,0
5,12,126,10,0,5,127,0,127,126
1,117,110,117,116,1,109,0,0,116
2,34,11,7,135,1,13,0,0,0
2,30,26,5,0,1,0,0,0,0
2,44,29,37,133,1,130,0,0,30
3,120,28,38,0,2,0,0,0,32
132,10,126,8,1,4,127,0,127,127
132,120,126,2,0,131,127,0,128,127
2,33,27,32,0,1,0,0,0,0
2,30,27,30,0,1,0,0,0,0
136,2,0,3,132,4,130,0,131,1
132,7,126,4,127,131,127,0,128,127
1,36,26,33,31,1,24,0,29,28
2,32,28,31,0,1,0,0,0,0
134,1,128,2,130,131,129,0,130,128
136,3,128,4,131,131,130,1,131,128
2,33,29,32,28,1,28,0,0,29
2,32,26,7,29,2,0,0,0,0
134,3,128,3,129,131,129,1,129,128
3,36,108,93,111,124,110,1,111,110
3,42,29,37,0,2,0,0,0,0
1,28,25,5,29,0,26,0,0,26
2,89,109,123,0,2,109,1,110,119
1,31,26,31,29,1,27,0,27,27
3,40,29,35,0,2,0,0,0,0
3,37,31,34,0,2,0,0,0,0
2,34,28,33,0,1,29,0,0,28
4,45,26,39,0,3,0,0,0,32
3,114,112,114,132,2,130,0,0,0
1,29,27,5,32,1,28,0,0,0
1,32,26,6,31,1,27,0,0,0
2,41,20,34,20,2,20,0,0,27
2,117,110,6,132,1,130,0,0,0
2,33,29,7,0,1,0,0,0,0
1,119,110,118,121,1,110,1,118,117
1,30,26,29,28,0,26,0,0,27
1,32,28,6,32,0,29,0,0,28
1,119,111,118,112,1,111,0,0,117
2,31,27,31,31,1,28,0,0,0
1,31,28,30,34,1,27,0,0,29
3,41,27,36,0,2,0,0,0,30
3,40,28,35,0,3,0,0,0,0
1,32,28,6,31,0,28,0,0,28
1,31,29,31,31,0,28,0,0,29
2,32,28,31,0,1,0,0,0,0
1,33,28,31,31,1,29,0,29,29
1,29,27,4,32,0,28,0,0,28
2,84,109,120,133,1,109,0,111,111
2,10,17,7,133,1,130,0,0,0
2,34,113,120,0,2,113,1,0,119
2,116,128,6,131,1,130,0,0,0
2,31,27,31,0,1,0,0,0,0
3,32,28,7,0,2,0,0,0,0
2,32,27,31,0,1,0,0,0,0
2,35,28,33,0,2,0,0,0,0
1,31,29,5,133,1,30,0,0,0
1,29,27,6,31,1,28,0,0,0
3,33,29,32,0,2,0,0,0,0
1,42,28,35,20,1,18,0,9,9
1,37,25,7,29,1,26,0,27,27
2,31,29,7,25,1,0,0,0,0
2,38,29,33,0,2,0,0,0,0
1,120,118,120,133,0,120,1,120,119
2,32,27,31,0,1,28,0,0,29
2,30,24,6,133,1,130,0,0,0
1,31,28,31,33,1,29,0,0,0
2,33,28,32,0,2,0,0,0,29
2,34,26,33,31,1,28,0,0,28
2,100,119,123,135,1,118,0,0,122
5,115,63,80,132,6,130,0,49,49
2,9,128,7,135,1,130,0,131,0
3,30,26,8,132,3,0,0,0,0
2,32,28,31,0,2,0,0,0,0
1,31,27,31,30,1,28,1,0,28
1,33,27,30,32,1,27,0,0,0
2,32,29,32,0,1,0,0,0,0
2,31,26,6,0,1,0,0,0,0
2,32,30,33,0,2,0,0,0,0
2,33,27,32,110,1,28,0,0,0
2,35,27,32,0,1,28,0,0,28
1,32,28,32,31,0,29,0,0,29
2,40,29,38,0,1,28,0,0,32
2,33,28,31,0,1,0,0,0,0
2,27,25,7,132,2,0,0,0,0
2,118,109,116,0,1,0,0,0,0
2,34,27,33,32,1,0,0,0,0
2,119,29,38,29,2,28,0,0,30
3,11,29,36,0,3,0,0,0,0
125,90,106,90,108,124,107,1,108,108
2,32,28,32,0,1,0,0,0,0
2,119,116,119,133,1,0,0,0,0
1,31,27,31,30,0,28,0,0,28
4,43,30,39,1,3,0,0,0,0
3,38,30,36,0,2,0,0,0,31
1,31,28,31,31,0,28,0,29,28
2,117,109,6,133,1,130,0,0,0
1,29,27,30,31,0,27,0,0,28
2,30,27,30,0,1,0,0,0,0
1,31,29,31,34,0,30,0,0,0
1,38,24,32,26,0,26,0,27,27
1,32,28,32,31,0,28,0,30,28
3,36,29,34,0,2,0,0,0,0
2,32,29,32,135,1,0,0,0,0
2,37,28,33,0,2,0,0,0,29
3,31,0,7,0,2,0,0,0,0
1,30,28,31,32,1,29,0,0,28
2,119,117,119,135,1,118,0,0,117
2,38,22,33,0,2,0,0,0,0
2,114,109,6,133,1,130,0,0,0
3,27,0,7,135,2,0,0,0,0
2,33,28,30,0,2,0,0,0,0
3,119,109,118,131,2,130,0,131,0
2,32,28,32,0,1,0,0,0,0
2,32,29,32,0,1,29,0,0,0
1,33,25,6,31,1,26,0,0,26
2,120,113,119,135,1,112,0,0,115
2,31,28,31,0,1,0,0,0,0
2,34,27,32,0,2,0,1,0,0
1,114,128,6,131,1,130,0,131,128
2,33,30,33,31,1,0,0,0,0
1,29,26,30,29,0,27,0,27,27
1,31,27,31,28,0,27,0,28,27
1,32,26,32,30,1,28,0,0,27
3,47,27,41,0,3,0,0,0,31
2,33,27,32,0,2,0,0,0,0
2,32,28,32,0,2,0,0,0,0
2,36,25,32,0,2,0,0,0,0
1,31,26,31,30,1,27,0,0,28
2,40,28,35,0,2,0,0,0,31
4,118,0,118,0,3,0,0,0,0
2,119,111,117,132,1,130,0,131,0
2,118,128,7,132,2,130,0,0,0
4,119,27,37,1,3,0,0,0,31
1,119,116,118,121,0,110,1,119,117
1,31,28,31,29,1,28,0,0,0
2,36,29,35,33,1,29,0,0,31
1,119,109,114,110,0,109,0,114,112
2,30,28,7,0,2,0,0,0,0
1,27,24,28,29,1,24,0,0,25
1,31,28,31,28,1,25,0,0,29
1,33,27,31,29,1,27,0,0,28
3,121,30,36,0,2,0,1,0,31
2,29,27,30,29,1,27,0,0,0
3,50,26,39,0,3,0,0,0,0
0,29,27,29,30,0,27,0,28,27
2,30,28,31,0,1,0,0,0,0
2,117,114,116,0,1,0,0,0,0
1,118,116,6,135,1,28,0,0,0
3,118,25,35,0,2,0,0,0,29
1,117,115,117,135,1,116,0,0,116
1,29,26,31,31,1,28,0,0,27
2,34,27,32,31,1,27,0,0,27
2,31,26,31,31,1,27,0,0,0
1,32,29,31,30,1,29,0,0,29
2,32,28,31,0,2,0,0,0,0
1,28,25,29,29,0,26,0,0,26
136,88,108,124,133,122,109,1,110,119
3,124,122,124,122,0,121,0,123,123
2,17,11,7,132,2,130,0,0,0
1,32,27,32,32,1,29,0,0,28
4,121,21,40,0,3,0,0,0,0
1,43,25,36,28,1,25,0,27,28
2,33,31,5,135,1,130,0,0,0
2,37,30,34,0,1,0,0,0,0
1,31,28,31,31,1,28,0,0,28
1,29,26,29,30,1,27,1,0,27
2,35,28,32,0,2,0,1,0,0
1,31,27,5,32,1,28,0,0,0
3,121,113,120,0,2,0,0,0,0
2,117,107,7,131,1,129,0,0,0
2,44,20,39,23,1,28,0,29,28
2,118,110,114,110,1,109,0,0,0
2,34,31,34,0,2,0,0,0,0
2,120,110,114,111,1,110,1,111,111
1,29,26,4,28,0,26,0,0,27
0,118,116,5,133,0,117,0,118,116
1,31,26,31,29,1,27,0,27,27
2,34,28,32,32,1,29,0,0,28
2,111,108,7,135,1,0,0,0,0
1,28,25,6,26,1,24,0,0,0
2,34,27,33,0,1,29,0,0,28
2,117,115,117,0,2,0,1,0,0
1,32,28,5,34,1,30,0,0,0
3,33,28,32,0,2,0,0,0,0
3,31,26,29,0,2,0,0,0,0
2,115,128,116,132,1,130,0,131,0
2,33,27,31,0,1,27,0,0,27
2,33,28,31,31,2,0,0,0,0
1,120,114,120,135,1,116,1,116,115
2,34,28,32,0,1,27,0,0,29
2,35,28,6,132,1,0,0,0,0
1,30,28,30,31,1,28,0,0,28
2,33,26,32,0,1,27,0,0,28
2,31,28,7,0,1,0,0,0,0
1,37,28,32,30,1,28,0,0,28
3,42,30,36,0,3,0,0,0,0
1,31,26,30,28,0,26,0,29,27
1,37,27,7,27,1,26,0,0,27
2,56,23,43,23,2,28,0,28,32
3,33,11,9,135,2,0,0,0,0
1,63,26,63,29,2,27,0,27,27
3,122,29,36,1,3,0,1,0,31
1,30,27,29,29,1,27,0,0,0
1,31,28,31,31,1,28,0,0,29
1,11,10,7,135,1,11,0,0,0
1,33,28,32,32,1,29,0,0,30
2,33,28,32,0,2,0,0,0,0
2,10,10,7,132,1,130,0,0,0
2,35,27,34,0,2,0,0,0,0
3,33,0,33,1,3,0,0,0,0
2,32,28,32,34,1,29,0,0,0
2,32,28,32,0,2,0,1,0,0
3,30,28,7,135,2,0,0,0,0
2,35,26,32,28,1,26,0,0,29
2,32,28,32,0,1,0,0,0,0
3,20,17,7,0,2,0,0,0,0
2,30,28,30,0,1,0,0,0,0
2,118,110,117,0,1,110,1,0,117
1,32,27,32,31,1,29,0,0,28
2,32,28,32,0,1,0,0,0,0
2,8,14,7,135,1,130,0,0,0
2,32,29,32,0,2,0,0,0,0
1,30,28,4,0,1,27,0,0,0
2,33,25,30,26,1,25,0,0,0
1,31,26,30,29,0,27,0,27,27
1,29,27,29,28,0,27,0,28,27
2,60,31,39,32,1,31,0,0,37
1,38,29,34,31,1,29,0,32,30
3,36,26,7,0,2,0,0,0,0
3,35,28,33,0,2,0,0,0,0
2,32,26,6,0,2,0,0,0,0
4,91,112,41,1,4,0,0,1,33
136,92,112,92,132,123,130,1,131,113
2,36,25,31,0,1,27,0,0,27
2,33,29,32,0,1,0,0,0,0
1,34,16,8,19,1,16,0,0,9
3,40,37,39,133,2,0,0,0,0
4,122,30,38,1,3,0,0,0,31
2,32,27,32,0,2,0,0,0,0
1,29,26,4,135,0,26,0,0,26
2,38,25,32,26,1,25,0,0,26
1,33,29,33,30,1,30,0,0,30
1,34,30,6,135,1,130,0,0,0
2,121,120,121,0,1,0,0,0,0
0,17,4,14,4,0,4,0,6,6
3,42,35,40,135,3,0,0,0,0
2,28,25,6,29,1,0,0,0,0
3,34,30,32,0,2,0,0,0,0
1,32,27,30,28,0,27,0,29,27
2,120,111,120,132,1,130,1,131,118
1,31,26,30,29,0,26,0,27,27
4,10,0,8,0,3,0,0,0,0
2,32,28,32,31,1,28,0,0,0
1,32,29,32,31,1,29,0,0,29
2,39,30,34,132,1,0,0,0,0
2,32,25,30,28,1,0,0,0,0
2,8,11,6,132,1,0,0,0,0
1,33,28,32,31,0,29,0,30,29
2,118,110,116,132,1,130,0,131,112
4,44,28,38,1,3,0,0,0,0
2,31,28,31,0,1,0,1,0,0
3,22,19,7,133,2,0,0,0,0
1,120,115,119,119,0,116,0,117,116
3,37,27,34,0,2,0,0,0,0
2,116,128,7,131,2,130,0,0,0
2,31,28,5,0,1,0,0,0,0
3,36,30,34,0,2,0,0,0,0
3,122,29,36,0,2,0,0,0,31
1,32,28,32,30,1,29,0,0,29
2,33,27,31,0,1,28,0,0,0
1,34,30,34,33,1,31,0,0,30
2,32,26,30,0,1,0,0,0,0
1,32,29,32,34,1,29,0,0,30
1,30,23,6,31,1,26,0,0,25
2,120,110,34,0,2,0,1,0,30
2,117,110,6,132,1,130,0,131,0
2,33,26,32,0,2,0,0,0,0
135,87,109,123,131,123,130,1,131,119
2,31,27,30,0,1,0,0,0,0
4,59,16,51,1,3,0,0,24,23
3,40,22,26,16,2,0,0,0,12
2,20,16,6,131,2,129,0,0,0
1,30,28,5,0,1,0,0,0,0
2,36,27,33,32,1,25,0,0,0
2,10,11,7,133,2,130,0,0,0
2,33,109,120,110,1,109,1,112,118
2,33,28,33,0,2,0,0,0,0
2,36,26,32,0,1,0,0,0,28
2,117,108,7,135,2,0,0,0,0
2,33,27,32,32,1,29,0,0,0
2,120,117,120,0,2,119,1,119,118
2,6,0,5,0,1,0,0,0,0
2,36,24,33,0,2,0,0,0,0
2,34,26,7,30,1,26,0,0,27
1,33,28,6,32,0,29,0,30,29
3,39,28,35,0,2,0,0,0,0
2,45,34,40,0,2,0,0,0,36
2,10,19,7,132,2,0,0,0,0
2,31,27,31,0,1,0,0,0,0
1,31,28,31,30,1,29,0,0,29
1,34,26,31,29,1,27,0,0,27
1,119,110,114,133,1,130,0,131,112
2,30,27,30,0,1,0,0,0,0
2,30,27,30,0,1,0,0,0,0
4,42,30,37,1,3,0,0,0,0
2,127,110,122,110,1,109,1,118,118
1,37,32,36,36,1,33,0,0,32
2,9,10,6,132,1,130,0,0,0
1,31,26,31,29,1,27,0,0,29
1,31,27,31,28,1,27,0,0,27
2,116,106,115,135,1,0,0,0,0
2,32,30,34,0,1,0,0,0,0
2,31,26,7,132,1,130,0,0,0
2,41,26,34,0,2,0,0,0,28
2,30,28,31,0,1,0,0,0,0
3,37,29,34,0,2,0,1,0,30
2,33,27,30,29,1,26,0,0,0
2,36,27,33,0,2,0,0,0,0
2,31,28,31,0,1,0,0,0,0
2,39,25,34,0,2,0,0,0,0
3,44,30,38,0,3,0,0,0,31
3,40,29,36,0,3,0,0,0,0
1,31,27,32,32,0,29,0,29,29
1,29,27,29,31,0,28,0,0,27
1,86,109,120,132,1,108,1,111,110
1,32,26,31,30,0,27,0,28,28
3,40,26,35,0,2,0,0,0,28
1,32,28,6,32,1,28,0,0,0
12,40,35,22,3,15,2,0,2,2
2,34,24,32,30,1,27,0,0,0
2,113,110,7,0,2,0,0,0,0
2,32,26,31,0,2,0,0,0,0
2,33,30,33,0,1,0,0,0,0
1,9,21,6,11,1,22,0,0,0
2,35,29,34,0,2,0,1,0,0
2,32,20,7,26,1,18,0,0,21
2,34,27,33,32,1,30,0,0,30
2,32,27,32,31,1,29,0,0,0
2,38,29,34,0,1,30,0,0,30
1,30,28,5,29,0,28,0,0,29
2,43,30,37,0,2,0,0,0,0
1,28,24,7,29,1,25,0,0,0
3,88,107,33,109,2,108,1,109,118
3,118,115,117,131,2,130,0,0,0
3,41,29,37,0,3,0,0,0,0
2,42,25,34,28,1,27,0,0,26
3,41,29,38,0,2,0,0,0,0
2,33,28,32,0,1,0,0,0,0
3,118,29,37,0,2,0,0,0,0
2,32,25,30,0,1,0,0,0,0
2,7,30,6,135,1,0,0,0,0
2,32,28,7,31,1,0,0,0,0
1,33,28,32,31,0,29,0,30,28
4,43,0,8,0,3,0,0,0,0
1,31,28,31,33,1,30,0,0,0
1,29,26,4,29,0,27,0,0,27
1,33,24,6,26,1,25,0,26,25
2,31,25,30,31,1,29,0,0,0
0,6,10,5,135,0,130,0,131,6
3,43,26,37,0,2,0,0,0,28
3,31,28,31,0,2,0,0,0,0
2,32,26,32,0,2,0,1,0,0
3,25,23,8,0,2,0,0,0,0
1,33,28,32,29,1,29,0,0,29
3,120,112,120,0,1,0,0,0,119
3,39,31,36,0,2,0,0,0,0
3,119,109,118,132,2,130,0,0,0
1,30,27,30,31,1,28,1,0,28
2,34,29,6,0,2,0,0,0,0
3,41,33,38,0,2,0,0,0,0
2,119,111,118,0,1,0,0,0,0
2,30,26,6,0,1,0,0,0,0
3,38,30,36,0,2,0,1,0,30
2,32,28,31,30,1,28,0,0,0
1,26,24,6,14,1,12,0,0,0
2,30,28,30,0,1,0,0,0,28
1,122,120,122,0,1,120,0,0,0
3,34,29,7,133,2,0,0,0,0
2,117,110,6,132,1,0,0,0,0
136,114,127,114,0,1,130,1,131,128
3,38,27,34,0,2,0,0,0,27
121,14,24,21,1,127,0,1,108,31
1,31,27,31,30,1,28,0,0,28
2,31,28,31,29,1,27,0,0,0
0,29,25,5,30,0,26,0,27,26
2,31,28,31,0,1,0,1,0,0
1,117,109,116,135,0,109,0,117,115
1,117,128,6,132,1,130,0,0,0
2,12,11,7,132,1,130,0,0,0
2,34,29,34,0,1,0,0,0,0
3,120,113,119,0,1,0,0,0,118
3,12,11,8,135,3,0,0,0,0
2,33,27,32,135,1,0,0,0,0
3,119,115,118,0,2,0,0,0,0
2,38,27,6,27,1,27,0,0,0
2,31,27,30,0,1,0,0,0,0
4,47,25,39,0,3,0,0,0,0
2,33,29,33,0,1,0,0,0,0
2,28,25,7,133,1,0,0,0,0
2,117,107,110,135,1,107,0,0,116
1,35,26,32,30,1,28,0,0,29
2,120,117,119,0,1,118,0,0,118
3,45,32,39,0,2,0,0,0,34
2,30,28,30,0,2,0,0,0,0
2,14,11,7,135,2,0,0,0,0
2,29,26,6,0,1,0,0,0,0
1,120,110,119,110,1,109,0,118,117
1,118,116,118,119,0,117,0,117,116
1,33,29,31,34,1,32,0,0,29
3,34,31,33,0,2,0,0,0,0
2,38,27,34,30,2,27,0,0,28
3,46,30,39,0,2,0,0,0,32
2,36,28,32,31,1,28,0,0,28
3,118,111,117,0,2,0,0,0,0
1,8,10,6,16,1,13,0,0,0
2,32,28,32,0,1,0,0,0,0
1,32,27,31,29,1,28,0,29,28
2,36,27,33,0,2,29,0,0,29
2,30,27,6,0,1,0,0,0,0
2,39,36,40,40,0,37,0,0,0
1,29,27,30,31,0,28,0,0,27
4,47,28,41,1,3,0,0,0,0
2,9,116,7,133,1,130,0,0,0
3,117,104,111,0,2,0,0,0,0
2,31,28,6,33,1,0,0,0,0
1,32,27,6,31,1,29,0,0,28
2,9,111,6,133,1,130,0,0,0
1,30,26,31,29,1,27,0,0,28
2,33,29,33,0,1,29,0,0,30
2,32,28,31,0,2,0,1,0,29
3,40,31,36,0,2,0,0,0,0
3,38,16,9,0,2,0,0,0,0
1,33,28,31,29,0,28,0,29,28
2,35,27,32,0,2,0,0,0,0
1,32,28,31,30,0,28,0,29,29
4,39,31,37,1,3,0,0,0,0
1,29,26,29,30,0,27,0,0,27
1,35,33,35,33,1,32,0,0,33
2,119,110,118,0,1,0,0,0,113
2,33,28,32,135,1,0,0,0,0
1,32,29,32,135,1,30,0,0,0
1,29,27,30,30,0,27,0,28,27
2,32,26,30,30,1,0,0,0,0
1,34,26,31,30,1,27,0,28,27
2,33,27,31,0,2,0,0,0,0
2,32,28,31,30,1,28,0,0,29
1,34,26,31,29,1,26,0,27,28
2,33,27,30,0,2,0,0,0,0
2,113,110,6,133,1,130,0,131,0
2,33,27,31,0,2,0,0,0,29
1,31,26,30,29,1,26,0,0,27
2,34,29,32,0,1,0,0,0,0
1,35,28,34,32,1,29,0,0,29
2,37,26,32,0,2,0,0,0,0
2,30,28,32,33,1,0,0,0,0
2,120,118,119,132,2,130,0,0,0
1,120,110,119,111,1,110,0,29,29
2,38,27,35,0,2,0,0,0,0
2,34,28,32,0,1,0,0,0,30
2,33,31,33,0,1,0,0,0,0
2,30,26,7,0,1,0,0,0,0
4,43,29,38,1,3,0,0,0,32
2,116,110,7,135,1,130,0,0,0
1,33,28,31,33,0,28,0,29,28
1,31,28,30,28,0,27,0,0,29
1,30,25,30,27,0,25,0,27,27
3,34,27,32,0,2,0,0,0,0
2,34,25,29,0,1,25,0,0,27
2,35,28,32,0,2,0,0,0,0
3,45,27,37,0,2,0,0,0,0
3,45,27,40,0,2,0,0,0,32
3,11,11,8,135,2,0,0,0,0
2,115,111,115,133,2,0,0,0,0
1,33,27,31,31,1,27,0,0,28
1,32,26,31,135,1,28,0,0,27
1,29,25,4,30,0,26,0,27,27
2,32,29,32,135,1,29,0,0,29
2,33,27,31,27,2,0,0,0,0
2,31,28,32,0,1,0,0,0,0
3,121,29,38,0,3,0,1,0,0
2,31,21,7,22,1,0,0,0,0
2,24,18,7,133,2,0,0,0,0
2,33,27,7,30,1,0,0,0,0
2,31,27,31,30,1,27,0,0,28
3,38,28,34,0,2,0,1,0,0
2,36,28,34,0,2,0,0,0,0
3,24,23,7,133,2,130,0,0,0
1,34,29,32,31,1,29,0,0,30
2,119,116,118,0,2,0,1,0,117
2,34,30,33,0,1,0,0,0,31
1,32,29,32,30,1,29,0,0,30
1,32,28,31,32,1,30,0,0,30
2,34,30,33,0,1,0,0,0,0
1,29,27,29,31,0,27,0,0,27
2,33,27,32,0,2,0,0,0,0
1,120,112,120,113,1,111,0,119,119
2,33,29,7,30,1,29,0,0,0
2,30,28,6,135,2,0,0,0,0
3,35,30,34,0,2,0,0,0,0
2,31,25,30,0,1,27,0,0,0
2,118,128,117,131,1,130,0,131,0
3,122,114,122,0,2,0,1,0,0
1,39,23,33,27,1,24,0,25,28
1,119,26,29,27,1,26,0,28,28
0,118,116,118,135,0,118,0,118,117
2,30,27,30,31,1,27,0,0,0
117,32,72,97,73,123,72,1,73,73
3,51,24,40,0,2,0,0,0,29
2,117,111,116,134,2,0,0,0,0
2,9,10,6,133,1,130,0,0,0
2,32,27,31,0,1,0,0,0,0
2,31,27,31,0,1,0,0,0,0
2,32,28,31,29,1,28,0,0,29
1,35,27,31,28,0,28,0,28,27
2,33,30,33,0,2,0,1,0,30
3,40,30,35,0,2,0,0,0,30
2,123,120,122,0,1,0,0,0,0
2,34,25,6,135,1,25,0,0,0
3,42,111,36,112,3,111,1,112,113
3,33,30,33,0,2,0,0,0,0
1,119,28,32,32,1,29,0,0,29
2,15,24,6,133,1,0,0,0,0
2,32,29,32,0,2,0,0,0,0
1,29,25,5,135,1,26,0,0,0
1,30,27,6,30,0,27,0,0,0
2,35,28,33,0,1,0,0,0,28
0,6,28,5,33,0,29,0,0,0
2,31,28,5,0,1,0,0,0,0
1,30,27,5,135,0,27,0,0,0
2,33,27,32,0,1,0,0,0,0
3,20,14,8,132,2,130,0,0,0
2,117,128,7,131,2,130,0,131,0
2,9,10,6,135,1,0,0,0,0
3,42,30,37,0,2,0,0,0,31
0,35,28,33,32,0,29,0,30,30
1,120,128,119,131,0,130,0,131,128
1,32,28,32,31,1,29,0,0,28
1,33,30,33,31,1,29,0,0,30
3,120,30,37,0,2,0,0,0,0
3,33,110,119,0,2,0,1,0,111
3,34,28,33,0,2,0,0,0,0
3,118,128,8,131,2,130,0,131,0
1,40,26,34,26,0,27,0,29,28
1,31,28,31,29,1,28,0,0,28
1,32,30,32,0,1,31,0,0,0
2,36,28,33,0,2,0,0,0,0
2,32,28,5,0,1,0,0,0,0
3,35,28,34,0,2,0,0,0,0
1,119,109,118,109,1,108,0,118,117
2,32,26,32,30,1,28,0,0,28
0,31,28,30,32,0,29,0,29,28
2,89,27,41,0,2,28,0,0,30
2,33,28,32,135,1,0,0,0,0
2,32,26,30,0,1,0,0,0,0
2,119,109,118,135,1,108,1,116,116
2,10,128,7,135,1,130,0,131,0
2,122,120,122,0,1,0,0,0,0
2,14,13,7,135,1,0,0,0,0
3,50,27,38,0,3,0,0,0,0
2,33,24,30,29,1,27,0,0,27
3,32,30,32,0,2,0,0,0,0
4,44,28,38,1,3,0,0,0,30
136,92,105,90,133,122,107,1,109,109
2,44,27,38,0,1,29,0,30,31
1,35,25,6,28,1,26,0,0,26
2,30,27,31,0,1,0,1,0,0
3,118,128,116,132,2,130,0,0,0
2,123,121,123,0,2,0,0,0,0
1,30,28,30,28,0,28,0,0,29
2,111,30,35,132,1,130,0,131,30
3,121,30,35,0,2,0,0,0,0
1,29,26,5,31,1,28,0,0,27
2,18,17,6,135,1,130,0,0,0
1,34,27,33,32,1,27,0,0,30
3,35,28,34,0,2,0,0,0,0
1,31,27,31,32,1,27,0,0,27
2,120,108,120,0,120,107,1,116,117
2,36,28,31,0,2,0,0,0,0
1,31,27,30,32,1,27,0,0,28
2,32,27,31,0,1,27,0,0,28
2,30,27,30,0,1,0,0,0,0
2,35,27,33,30,1,28,0,0,0
2,36,23,28,28,1,24,0,0,24
1,36,25,32,26,1,24,0,26,26
3,36,28,33,0,2,0,0,0,29
1,33,29,33,32,1,30,0,0,30
1,33,28,31,135,1,28,0,0,28
3,32,27,31,0,2,0,0,0,0
2,32,29,31,0,1,0,0,0,0
3,39,30,36,0,2,0,0,0,32
1,43,26,37,20,1,29,0,29,27
3,35,29,33,0,2,0,0,0,0
2,35,27,6,0,2,0,0,0,0
3,44,27,37,0,3,0,0,0,29
2,36,31,34,0,1,31,0,0,32
1,33,25,30,28,1,25,0,26,26
2,119,128,119,131,1,130,0,131,128
2,31,27,31,0,1,0,0,0,0
1,118,109,117,132,1,130,0,131,111
2,35,28,32,0,2,0,0,0,0
2,119,115,118,0,1,0,0,0,0
2,31,28,31,0,1,0,0,0,0
2,36,27,33,31,1,28,0,0,28
2,34,28,7,132,1,0,0,0,0
3,39,26,33,0,2,0,0,0,0
2,32,28,31,0,1,29,0,0,28
1,8,11,6,132,1,0,0,0,0
3,35,29,33,0,2,0,0,0,0
2,29,26,7,135,2,0,0,0,0
2,34,26,32,30,1,27,0,0,27
2,120,110,120,111,1,110,1,113,118
1,31,27,6,28,1,27,0,0,28
1,30,24,29,26,0,25,0,26,26
3,35,0,33,0,3,0,0,0,0
2,36,29,33,0,2,0,0,0,30
2,32,28,32,0,1,0,0,0,0
2,118,23,41,0,2,29,0,30,28
1,31,29,31,135,1,29,0,0,0
3,121,119,121,0,2,0,0,0,0
1,33,31,34,34,1,31,0,0,31
1,34,25,32,30,1,27,0,0,27
1,30,27,30,135,0,29,0,0,28
1,33,28,32,29,1,28,0,0,29
1,31,28,31,30,1,28,0,0,29
2,36,28,34,132,2,130,0,0,0
2,119,111,116,0,1,111,1,0,117
1,6,111,6,18,0,113,0,0,0
2,35,27,33,30,1,28,0,0,28
2,118,110,116,132,1,130,0,131,0
1,31,28,31,135,0,27,0,0,0
2,42,26,35,0,2,0,0,0,29
2,34,27,33,0,2,0,1,0,0
3,120,32,36,1,3,0,0,0,32
1,33,27,31,32,1,28,0,0,28
1,32,27,32,31,1,28,0,0,29
2,33,27,32,0,1,0,0,0,29
3,34,29,34,0,2,0,0,0,0
2,33,27,31,28,1,27,0,0,0
1,28,27,5,29,0,27,0,29,27
2,34,26,31,29,1,27,0,0,28
2,36,28,33,32,1,29,0,0,29
2,89,108,122,110,1,108,1,110,110
2,32,26,31,0,1,27,0,0,0
2,10,128,7,131,1,130,0,0,0
2,34,26,30,32,1,26,0,0,0
1,33,28,32,32,1,29,0,0,29
1,30,27,30,28,1,28,0,0,28
3,36,30,34,0,2,0,0,0,0
2,122,24,37,28,2,26,0,0,27
1,33,28,31,30,1,28,0,0,28
1,22,128,6,132,1,130,0,0,0
4,121,29,39,1,3,0,0,0,0
3,34,0,34,0,2,0,0,0,0
1,32,27,31,29,1,28,0,29,28
2,119,30,34,135,1,30,0,0,30
1,34,22,28,26,1,23,0,0,23
1,31,27,30,28,1,27,0,0,27
3,118,110,114,0,2,0,1,0,0
3,34,28,32,0,2,0,0,0,0
2,35,27,6,32,1,0,0,0,0
2,13,12,7,16,2,0,0,0,0
3,44,29,39,0,3,0,0,0,31
2,37,29,34,0,2,0,0,0,0
2,36,27,34,0,2,0,0,0,0
2,9,10,7,132,1,130,0,0,0
2,34,27,32,0,1,0,0,0,29
1,33,27,32,32,1,27,0,30,29
2,32,27,31,0,1,0,0,0,0
1,31,27,31,31,1,28,0,0,0
1,39,25,33,31,1,27,0,27,28
2,37,28,32,0,1,28,0,0,29
123,87,108,127,109,122,108,1,118,119
3,44,28,39,0,3,0,0,0,29
2,31,26,31,0,2,0,0,0,0
2,33,27,32,135,1,28,0,0,29
3,33,28,33,0,2,0,0,0,0
1,31,27,30,30,1,28,0,0,28
1,35,25,30,28,1,26,0,0,26
2,30,28,31,0,1,0,0,0,0
3,37,30,35,0,2,0,0,0,0
2,32,29,33,135,1,0,0,0,0
3,32,28,32,0,2,0,0,0,0
1,32,27,32,31,0,28,0,0,28
2,21,18,7,133,1,130,0,0,0
3,122,28,35,0,3,0,0,0,0
1,31,28,5,135,0,30,0,0,29
1,31,28,5,135,0,28,0,0,28
1,31,27,31,31,1,28,0,0,28
3,35,30,33,0,2,0,1,0,0
3,32,0,32,0,2,0,1,0,0
1,30,28,5,29,0,28,0,0,28
2,33,113,116,135,1,112,0,0,114
2,36,29,33,0,2,0,0,0,0
2,9,0,6,132,1,0,0,0,0
1,31,25,31,29,0,26,0,29,27
123,87,107,127,1,122,107,1,119,118
3,33,30,33,0,2,0,0,0,0
3,34,29,33,0,2,0,0,0,0
3,35,28,7,0,2,0,0,0,0
1,119,116,118,135,0,117,0,118,117
2,32,28,32,0,2,0,0,0,0
1,33,31,33,32,1,31,0,0,31
2,35,19,7,135,1,20,0,0,19
3,28,23,8,11,2,0,0,0,0
2,35,24,7,135,2,0,0,0,0
2,33,30,33,0,1,30,0,0,31
2,32,29,31,0,1,0,0,0,0
2,48,26,35,27,2,0,0,0,27
2,37,27,32,30,1,28,0,0,28
2,33,27,31,0,2,0,0,0,0
3,122,29,34,0,2,0,1,0,29
2,37,28,35,0,2,0,0,0,0
3,121,30,36,1,3,0,0,0,31
2,32,26,31,0,2,0,1,0,28
3,41,27,37,135,2,0,0,0,0
3,45,23,39,0,3,0,0,0,0
2,38,27,33,31,2,29,0,0,0
2,117,128,7,131,1,130,0,0,0
2,34,28,7,31,1,29,0,0,29
1,33,27,32,30,0,28,0,29,28
1,27,25,28,27,0,25,0,26,25
3,37,28,34,0,2,0,0,0,29
2,31,28,31,0,1,28,0,0,0
1,33,28,32,30,1,29,0,29,29
3,32,28,32,0,2,0,1,0,0
2,8,116,6,132,1,0,0,0,0
3,40,27,35,0,2,0,0,0,0
2,114,111,7,134,1,0,0,0,0
3,35,30,35,0,2,0,0,0,0
2,31,27,31,30,1,27,0,0,0
2,31,29,32,0,1,30,0,0,0
3,118,111,118,0,2,0,1,0,0
2,32,13,7,133,1,0,0,0,0
1,31,29,31,30,1,30,0,0,30
2,119,117,118,133,1,130,0,0,0
2,34,29,33,0,1,0,0,0,0
2,28,26,6,133,1,0,0,0,0
1,30,26,30,29,1,26,0,0,27
2,30,27,30,0,1,0,0,0,0
1,30,26,5,31,0,27,0,27,27
3,33,0,33,0,2,0,0,0,0
2,35,30,34,34,1,31,0,0,31
1,32,27,5,25,1,24,0,0,0
1,86,107,121,0,121,107,1,109,109
2,30,26,30,0,1,26,0,0,27
2,31,29,6,0,1,0,0,0,0
2,31,27,6,0,1,0,0,0,0
2,24,22,7,133,2,130,0,0,0
2,32,28,32,135,1,28,0,0,0
2,35,28,33,31,1,29,0,0,29
3,36,0,35,0,3,0,0,0,0
2,27,25,6,135,1,0,0,0,0
2,36,28,32,29,1,28,0,0,28
2,31,28,6,0,2,0,0,0,0
3,51,26,43,0,2,0,0,0,32
1,31,28,31,31,1,28,0,0,0
2,33,27,7,135,2,0,0,0,0
2,32,28,32,0,1,29,0,0,0
2,38,31,36,0,1,32,0,0,0
0,40,31,35,32,0,30,0,31,30
3,10,128,7,132,2,0,0,0,0
2,30,27,30,0,1,0,0,0,0
2,27,24,6,135,1,0,0,0,0
1,32,29,31,29,0,26,0,29,29
123,38,81,92,106,122,106,1,107,106
2,37,23,32,23,1,28,0,0,27
2,118,109,114,132,1,130,0,0,0
1,31,27,30,29,1,28,0,0,28
2,23,10,15,14,2,10,0,9,9
2,122,120,122,134,0,119,0,122,121
2,32,27,31,0,2,0,0,0,0
2,32,29,33,0,1,0,0,0,0
3,65,111,94,112,2,111,1,113,113
2,32,30,6,134,1,0,0,0,0
1,9,10,6,11,1,10,0,0,0
1,34,26,31,29,1,28,0,0,28
3,34,30,34,0,2,0,0,0,0
1,32,28,32,31,1,29,0,0,0
4,116,30,37,1,3,0,0,0,0
2,38,25,33,30,1,27,0,0,27
1,33,28,32,31,1,29,0,0,0
2,33,28,32,0,1,0,0,0,0
3,37,29,35,0,2,0,0,0,0
2,30,26,30,0,1,0,0,0,27
2,32,29,33,0,2,0,0,0,0
3,41,26,34,0,2,0,0,0,0
2,39,29,34,9,1,29,0,0,29
1,31,27,31,29,1,28,0,29,28
2,31,26,30,0,1,0,0,0,0
2,31,25,7,133,1,0,0,0,0
3,27,0,7,0,2,0,0,0,0
3,36,28,34,0,2,0,0,0,0
3,38,0,7,0,2,0,0,0,0
2,37,27,32,32,1,28,0,0,28
1,32,26,30,31,1,27,0,0,27
1,30,27,30,31,1,28,0,0,0
2,13,11,7,131,2,130,0,0,0
1,31,29,31,31,0,29,0,0,29
3,122,30,34,0,2,0,0,0,0
2,32,28,6,30,1,0,0,0,0
118,1,79,98,80,126,79,1,80,80
2,32,27,31,32,1,27,0,0,0
2,31,27,7,135,1,0,0,0,0
2,124,121,124,121,0,120,0,122,123
2,31,29,31,0,2,0,1,0,0
2,34,31,34,0,1,0,0,0,32
1,34,27,31,30,1,28,0,0,29
1,9,10,6,10,1,0,0,0,0
2,32,31,6,36,1,0,0,0,0
3,34,114,121,0,2,0,1,0,116
3,41,29,35,0,2,0,1,0,30
2,32,28,31,29,1,28,0,0,28
2,31,27,7,0,2,0,0,0,0
3,39,28,36,0,2,0,0,0,0
3,39,28,35,0,3,0,0,0,0
1,30,25,29,26,1,25,0,0,27
3,122,26,36,0,2,0,0,0,29
1,33,24,30,29,1,25,0,27,26
3,29,26,7,134,2,0,0,0,0
1,36,26,32,31,1,27,0,29,28
1,34,26,32,31,1,27,0,29,27
1,32,27,32,31,1,28,0,0,28
2,32,27,7,28,1,0,0,0,0
3,33,29,32,0,2,0,0,0,0
2,34,26,31,30,1,28,0,0,0
2,33,109,119,135,2,109,1,112,118
3,37,114,121,0,2,0,1,0,116
1,30,25,6,28,1,26,0,0,0
1,31,27,31,30,1,27,0,0,0
1,30,26,6,32,1,27,0,0,0
2,37,30,34,0,2,0,0,0,31
4,120,30,38,1,3,0,0,0,0
1,30,24,6,30,1,27,0,0,26
3,118,114,7,133,2,0,0,0,0
2,30,28,31,0,1,0,1,0,29
3,118,109,7,132,2,130,0,0,0
2,31,26,30,0,2,0,0,0,0
3,35,29,33,0,2,0,0,0,0
1,31,28,32,31,0,29,0,29,29
2,32,28,32,0,2,0,0,0,0
2,32,30,32,0,1,0,1,0,0
3,16,0,8,0,3,0,0,0,0
2,117,109,113,135,1,0,0,0,0
2,33,28,32,0,1,0,0,0,28
2,34,27,32,28,1,26,0,0,29
1,28,25,5,30,0,26,0,0,26
2,31,27,31,0,2,0,0,0,0
2,43,28,37,28,2,28,0,0,29
1,32,27,31,32,1,27,0,28,28
1,33,27,32,28,0,26,0,29,28
1,38,30,7,25,1,30,0,31,30
1,119,115,117,135,1,116,0,0,0
1,37,27,33,32,1,29,0,30,28
1,34,26,32,27,1,26,0,27,28
2,118,128,7,132,1,130,0,0,0
3,119,114,119,135,2,0,0,0,0
2,33,30,33,135,1,0,0,0,0
1,30,27,31,31,1,28,0,0,28
1,28,26,28,31,1,26,0,0,27
1,31,26,30,29,1,27,0,0,27
1,30,27,30,29,0,27,0,29,28
2,31,28,31,0,1,0,0,0,0
1,31,28,31,32,0,28,0,0,29
2,32,28,32,0,1,29,1,0,29
3,37,28,33,0,2,0,0,0,0
2,29,25,30,46,1,26,0,0,0
3,121,29,34,0,2,0,1,0,29
1,32,27,32,31,1,28,0,0,29
2,31,27,30,27,1,27,0,0,0
1,12,22,27,25,1,22,0,23,23
2,35,29,34,0,2,0,0,0,0
2,110,108,7,131,1,129,0,131,0
1,29,27,30,29,0,27,0,29,28
2,26,23,6,28,1,25,0,0,0
99,71,34,69,93,118,92,0,93,38
2,35,26,32,30,1,27,0,0,0
2,44,27,36,0,2,0,0,0,29
1,37,27,32,24,1,28,0,29,27
3,10,23,8,135,2,0,0,0,0
1,31,28,30,31,0,28,0,29,28
2,32,28,32,0,1,28,0,0,29
1,30,27,30,112,1,110,0,0,28
2,46,21,38,26,2,23,0,23,26
1,31,29,32,30,1,28,0,0,29
1,119,111,114,31,1,111,0,0,118
1,117,128,116,131,0,130,0,131,128
1,118,115,117,135,1,113,0,0,117
1,31,28,5,30,0,29,0,0,28
1,9,128,6,135,1,130,0,131,0
2,41,27,35,29,1,27,0,0,26
3,42,27,36,0,3,0,0,0,30
1,32,26,29,28,0,25,0,26,26
2,44,26,39,27,1,27,0,29,29
4,111,108,110,132,2,0,0,0,0
4,122,30,41,1,3,0,0,0,32
1,60,30,37,31,1,30,0,30,31
1,32,26,32,26,1,26,0,0,29
2,32,29,115,0,1,0,1,0,0
2,117,109,114,32,1,0,0,0,0
2,37,29,35,0,2,0,0,0,0
2,118,111,6,132,1,130,0,0,0
1,34,28,32,28,1,28,0,0,29
1,31,29,4,31,0,29,0,0,29
2,33,27,32,30,1,27,0,0,29
2,30,28,6,30,1,29,0,0,0
2,32,27,32,31,1,28,0,0,29
2,32,28,31,0,1,0,0,0,0
4,35,109,118,0,3,0,1,0,0
2,41,28,36,28,1,28,0,0,29
2,118,114,117,135,1,116,1,116,115
3,118,116,119,134,2,0,0,0,0
3,75,2,2,2,1,0,0,0,0
2,90,106,88,132,39,27,1,28,108
1,32,26,31,32,1,29,0,30,28
2,9,12,6,135,1,0,0,0,0
2,21,14,6,133,1,0,0,0,0
3,41,113,35,1,3,0,1,0,121
2,30,27,6,134,1,24,0,0,0
1,31,27,5,31,0,29,0,0,28
2,33,29,32,33,1,30,0,0,0
2,57,27,7,132,1,130,0,0,27
2,38,30,36,0,2,0,0,0,30
2,33,25,31,28,1,26,0,0,28
3,30,0,7,0,2,0,0,0,0
1,31,26,29,30,1,27,0,0,27
1,30,26,30,29,1,26,0,0,27
2,12,10,7,15,1,10,0,0,0
2,119,110,114,133,1,110,0,0,0
2,117,115,6,132,1,130,0,0,0
2,34,27,33,0,1,0,0,0,29
2,34,29,33,30,1,29,0,0,30
134,35,128,5,0,1,130,0,130,128
2,113,25,38,0,2,0,0,0,25
2,33,26,31,0,2,0,0,0,27
2,33,27,32,30,1,29,0,0,29
2,115,112,115,135,1,112,0,0,0
1,31,27,31,30,1,28,0,0,28
2,124,122,124,135,0,122,0,123,123
3,35,29,35,0,2,0,0,0,0
2,119,109,118,132,1,130,0,0,117
2,42,27,36,0,2,29,0,0,30
1,28,26,30,135,1,27,0,0,0
2,8,23,7,132,2,130,0,0,0
2,38,28,35,0,2,0,0,0,31
1,30,27,30,32,1,29,0,0,28
2,32,29,31,0,1,0,0,0,0
2,31,28,31,0,2,0,0,0,0
1,31,27,31,33,0,30,0,0,28
3,121,30,35,0,2,0,0,0,0
2,37,28,34,135,2,0,0,0,0
3,38,29,35,0,2,0,0,0,0
2,32,29,32,0,1,0,0,0,0
2,33,26,7,28,2,0,0,0,0
4,121,31,36,1,3,0,0,0,0
2,41,30,37,0,2,0,0,0,30
1,34,29,32,32,1,29,0,0,29
1,34,26,31,31,1,28,0,28,27
1,31,27,30,29,1,27,0,0,0
1,32,116,5,133,0,130,0,0,0
2,9,18,7,132,1,130,0,0,0
3,38,29,35,0,3,0,0,0,0
4,49,26,44,1,4,0,0,1,33
2,36,109,120,110,2,109,0,0,111
2,30,25,6,0,1,0,0,0,0
2,37,31,34,0,2,0,1,0,31
2,34,28,33,0,2,0,1,0,30
4,58,20,42,0,3,0,0,0,21
2,119,111,118,133,1,130,0,131,0
2,36,28,31,0,1,0,0,0,28
2,33,27,6,0,1,0,0,0,0
3,30,28,7,0,2,0,0,0,0
2,128,109,121,110,1,109,1,119,118
2,12,22,7,25,1,25,0,0,0
2,10,26,7,131,1,130,0,0,0
1,31,26,31,27,1,26,0,0,29
2,119,118,119,0,1,119,0,0,118
1,32,28,32,0,1,28,0,0,29
2,112,109,112,135,1,0,0,0,0
2,33,27,6,0,2,0,0,0,0
1,31,27,30,31,0,28,0,29,27
3,122,27,39,0,2,0,0,0,32
1,15,13,6,132,0,130,0,0,14
2,120,117,119,133,1,130,0,131,118
2,119,112,6,133,1,0,0,0,0
3,10,0,7,133,3,0,0,0,0
3,40,28,35,0,2,0,0,0,30
2,30,27,30,0,1,0,0,0,0
2,39,28,34,0,2,0,0,0,29
2,35,28,32,0,1,0,0,0,29
2,32,28,31,0,2,0,0,0,0
1,32,27,31,31,1,27,0,0,27
1,32,28,31,28,1,26,0,0,28
2,38,26,35,31,1,29,0,0,28
2,118,108,117,118,1,108,0,0,0
3,49,112,39,1,3,0,1,0,33
3,115,0,115,0,2,0,0,0,0
2,35,27,33,29,1,27,0,0,27
2,35,28,32,29,1,29,0,0,0
2,34,30,34,0,1,0,0,0,0
2,31,28,6,32,1,0,0,0,0
3,34,27,32,0,2,0,0,0,0
2,122,30,33,0,1,29,0,0,30
1,31,26,29,30,1,27,0,0,27
1,34,27,33,26,1,27,0,0,28
3,121,113,121,0,2,0,1,0,0
2,37,29,34,0,1,30,0,0,29
124,88,106,88,108,125,107,1,108,107
2,32,28,32,0,1,0,0,0,0
2,32,26,30,0,1,0,1,0,29
1,7,128,6,131,0,130,0,131,0
2,34,29,32,0,2,0,0,0,29
2,46,25,38,0,2,25,0,0,26
2,17,16,5,133,1,130,0,0,0
0,33,27,5,28,0,26,0,26,28
1,32,28,31,29,1,29,0,0,28
1,32,28,32,32,1,29,0,30,29
3,10,21,7,132,2,0,0,0,0
3,121,113,120,133,2,0,0,0,118
2,117,112,117,132,1,130,0,0,0
1,121,112,121,112,0,112,1,116,116
2,34,26,32,0,1,0,0,0,0
2,34,29,6,135,1,0,0,0,0
3,40,27,35,1,3,0,0,0,0
2,32,28,31,0,2,0,1,0,0
3,34,29,33,0,2,0,0,0,0
1,39,23,33,27,0,26,0,27,27
1,34,26,32,30,0,27,0,28,28
1,30,26,29,27,1,26,0,0,26
3,53,27,38,25,2,0,0,0,28
3,37,30,34,0,2,0,0,0,0
2,9,113,6,133,1,130,0,0,0
3,32,26,7,0,2,0,0,0,0
2,121,117,120,0,1,117,0,0,119
2,122,0,122,0,2,0,0,0,0
3,45,26,38,0,3,0,0,0,0
1,32,23,30,26,0,23,0,24,27
2,31,28,31,0,1,0,0,0,0
2,120,111,115,112,1,111,0,0,112
1,34,28,32,30,0,28,0,29,30
3,35,26,33,0,2,0,0,0,0
1,30,27,6,27,1,27,0,0,27
1,34,29,33,32,0,30,0,31,30
3,45,27,37,0,2,0,0,0,0
2,32,30,32,0,2,0,0,0,0
2,32,29,32,0,1,0,0,0,0
1,40,23,33,23,1,23,0,0,25
4,45,113,40,1,3,0,0,0,120
1,37,26,34,26,1,26,0,31,29
2,33,28,31,0,2,0,0,0,0
2,32,25,31,0,2,0,0,0,0
1,33,27,32,31,1,28,0,0,28
2,33,27,31,0,1,0,0,0,0
2,30,27,6,0,1,0,0,0,0
2,31,27,30,0,1,0,0,0,0
2,33,27,31,28,1,27,0,0,28
1,35,27,32,31,1,28,0,29,28
2,33,27,32,0,2,0,0,0,0
1,33,27,33,27,0,27,0,30,30
1,32,27,31,32,1,28,0,0,28
0,122,120,2,3,0,119,0,2,0
2,118,109,116,109,1,109,0,0,0
2,117,115,116,135,1,115,0,0,0
2,35,27,32,0,1,27,0,0,28
2,38,30,35,31,1,30,0,0,32
3,32,28,32,0,2,0,0,0,0
1,32,28,32,31,0,29,0,30,29
3,36,28,33,0,2,0,0,0,0
1,31,28,31,30,1,28,0,0,28
3,28,0,7,0,2,0,0,0,0
2,30,27,30,0,1,0,0,0,0
2,119,107,118,108,1,107,0,0,117
2,31,28,31,0,1,0,0,0,0
1,32,28,6,31,1,29,0,0,28
2,31,29,6,30,1,0,0,0,0
3,34,27,32,0,2,0,0,0,0
3,22,19,7,133,2,0,0,0,0
1,117,27,5,115,1,28,0,0,0
2,33,29,8,33,2,0,0,0,0
1,30,27,30,32,0,27,0,29,28
1,36,27,33,28,1,28,0,28,28
2,38,28,33,0,2,0,0,0,28
1,30,28,31,32,1,28,1,30,29
3,46,27,39,0,3,0,0,0,30
3,21,0,8,134,2,0,0,0,0
3,42,29,37,0,2,0,0,0,0
3,41,27,37,0,2,0,0,0,30
2,33,29,32,0,2,0,1,0,0
2,123,119,123,0,2,119,1,122,121
1,32,28,31,30,1,28,0,0,28
2,34,31,35,32,1,31,0,0,0
1,33,28,32,32,0,29,0,30,29
1,34,25,31,27,1,25,0,0,27
3,118,110,7,133,2,0,0,0,0
2,120,112,120,0,1,112,1,0,119
2,119,117,118,0,1,0,0,0,0
1,29,26,30,29,0,27,0,28,27
1,29,26,30,30,1,27,0,0,27
3,120,114,118,135,1,0,0,0,0
1,32,29,32,32,0,30,0,31,29
2,35,28,32,29,1,28,0,0,30
3,36,29,33,0,3,0,0,0,0
2,121,0,121,0,1,0,0,0,0
2,35,29,32,30,1,0,0,0,0
2,33,110,122,0,2,119,1,0,119
1,33,26,31,30,0,26,0,28,28
1,30,28,6,135,1,29,0,0,0
3,37,29,33,0,2,0,0,0,0
3,31,0,6,0,2,0,1,0,0
1,30,28,5,26,1,29,0,0,0
2,32,28,33,0,2,0,0,0,0
1,39,26,34,30,1,26,0,30,29
2,32,29,32,33,1,30,0,0,29
2,118,110,117,132,1,130,0,0,0
2,32,29,32,0,1,0,0,0,0
3,37,29,34,0,2,0,0,0,0
3,44,30,37,0,3,0,0,0,0
2,128,109,120,135,1,109,1,118,117
2,35,28,31,0,1,0,0,0,0
2,35,25,32,0,2,0,0,0,0
1,37,28,33,29,1,28,0,29,28
2,29,26,6,0,1,0,0,0,0
3,34,29,34,0,2,0,0,0,0
2,35,29,32,0,1,0,0,0,0
3,118,19,8,134,2,0,0,0,0
3,33,29,33,1,2,0,0,0,0
3,121,30,36,0,2,0,0,0,0
3,21,128,8,131,2,130,0,0,0
1,31,25,31,24,1,22,0,0,27
1,34,28,34,34,1,31,0,0,31
2,121,113,116,0,1,0,1,0,119
2,87,108,123,131,122,130,1,131,119
3,118,128,7,131,2,129,0,0,0
3,34,30,34,0,2,0,0,0,0
1,31,27,31,32,1,27,0,0,0
2,114,110,6,132,1,0,0,0,0
1,28,26,5,31,0,28,0,0,27
4,121,33,36,1,3,0,0,1,0
3,38,0,9,0,3,0,0,0,0
2,33,26,31,0,2,0,0,0,0
1,33,26,31,30,0,27,0,28,27
2,13,116,26,135,2,21,0,0,0
1,31,26,31,29,1,27,0,0,27
2,32,28,31,0,1,0,0,0,0
1,31,27,6,30,1,28,0,0,0
2,33,27,31,0,2,0,0,0,0
3,44,29,38,1,3,0,0,0,32
3,121,29,36,0,2,0,0,0,31
3,42,30,37,0,2,0,0,0,32
2,31,28,31,0,2,0,0,0,0
2,112,109,6,0,1,0,0,0,0
4,119,0,7,0,3,0,0,0,0
2,40,31,37,0,2,0,1,0,34
2,32,28,6,0,1,0,0,0,0
3,43,30,37,0,2,0,0,0,31
2,115,111,115,0,2,0,0,0,0
2,32,28,31,0,1,28,0,0,0
1,31,28,5,31,1,28,0,0,28
2,10,25,27,133,1,24,0,0,0
2,36,26,33,0,2,27,0,0,27
2,30,27,31,135,1,0,0,0,0
3,43,29,37,0,2,0,0,0,32
1,32,25,30,29,1,26,0,0,0
1,33,25,31,28,1,26,0,28,28
1,31,27,31,28,0,28,0,28,27
1,118,117,115,122,1,118,0,119,117
2,31,19,8,135,2,18,0,0,0
2,44,27,35,28,1,27,0,0,27
2,32,30,32,0,1,0,1,0,0
3,32,0,32,0,2,0,0,0,0
3,42,29,37,0,3,0,0,0,0
3,36,27,32,0,2,0,0,0,0
2,33,28,32,0,2,0,0,0,0
4,120,0,37,0,3,0,0,0,0
1,31,28,31,34,0,27,0,0,29
3,30,26,7,133,2,0,0,0,0
2,33,28,32,29,1,27,0,0,0
2,83,108,121,133,1,108,0,131,116
1,58,15,40,18,1,23,0,24,23
3,42,28,37,0,2,0,0,0,29
2,42,26,35,27,1,25,0,0,28
1,30,26,31,29,1,28,1,0,28
3,36,112,124,113,2,0,1,0,120
2,36,26,31,32,1,26,0,0,28
1,36,30,35,31,0,31,0,32,31
2,42,27,37,0,1,29,0,31,31
2,32,27,31,0,1,0,0,0,0
1,116,113,116,135,0,113,0,0,0
1,34,28,32,33,1,29,0,0,29
1,32,25,30,26,1,25,0,0,26
2,32,27,32,32,1,28,0,0,29
2,10,11,7,135,2,0,0,0,0
1,30,28,31,135,0,29,0,0,28
1,30,27,30,32,1,27,0,0,28
2,33,28,32,0,1,0,0,0,0
2,32,28,31,0,1,0,0,0,0
2,34,31,34,35,1,32,0,0,31
1,36,29,34,31,1,30,0,31,30
2,118,128,7,131,1,130,0,131,0
1,119,110,118,110,0,109,0,113,117
2,33,28,32,135,1,0,0,0,0
2,35,27,32,0,1,27,0,0,28
3,43,19,33,31,2,0,0,0,19
3,32,30,33,0,2,0,0,0,0
2,87,28,35,32,1,31,0,0,31
3,33,29,32,0,2,0,0,0,0
2,31,28,31,0,1,0,0,0,0
2,35,27,32,0,2,0,0,0,0
1,118,109,118,135,0,108,0,117,117
2,33,29,32,0,2,0,0,0,0
1,30,27,29,31,1,28,0,0,27
2,30,25,28,0,1,0,0,0,0
1,30,27,30,135,1,28,0,0,0
2,43,28,36,0,2,0,0,0,31
3,119,111,117,0,2,0,1,0,0
2,28,26,6,135,1,0,0,0,0
1,116,111,116,135,1,111,0,0,0
1,30,27,30,135,0,28,0,0,27
2,36,29,34,0,2,0,1,0,0
2,31,28,31,30,1,28,0,0,0
2,32,28,31,32,1,28,0,0,0
0,117,26,30,132,0,130,1,26,26
2,34,28,33,0,2,0,0,0,0
3,45,29,39,0,3,0,0,0,0
1,29,27,29,31,1,27,0,0,0
1,31,25,30,28,1,26,0,28,28
2,31,27,31,32,1,28,0,0,0
2,34,27,33,0,1,0,0,0,0
3,36,29,34,0,2,0,0,0,0
2,36,25,32,25,1,25,0,0,27
1,34,27,30,32,0,27,0,29,27
1,31,27,4,32,0,29,0,0,28
2,118,116,117,0,1,0,0,0,0
2,33,29,32,32,1,30,0,0,0
3,90,66,89,70,3,17,0,0,25
2,116,114,116,0,1,0,0,0,0
3,33,30,32,0,2,0,0,0,0
2,34,25,31,27,1,26,0,0,27
2,112,110,112,0,1,0,0,0,0
2,33,20,7,32,1,20,0,0,0
1,30,10,7,14,1,11,0,0,10
1,29,19,6,133,1,20,0,0,0
1,120,116,119,135,1,116,1,118,117
2,32,27,31,30,1,28,0,0,28
2,86,50,62,0,1,54,1,0,54
1,34,30,34,32,1,30,0,0,31
3,40,29,36,0,2,0,0,0,30
2,29,26,7,135,1,0,0,0,0
1,33,27,31,32,1,28,0,0,28
1,35,29,33,35,1,32,0,0,32
1,33,23,6,26,1,23,0,0,0
3,10,29,8,133,2,0,0,0,0
2,9,114,7,135,2,0,0,0,0
1,32,28,32,31,1,29,0,0,29
1,31,26,30,30,0,28,0,28,27
3,120,114,118,134,1,0,0,0,0
3,44,25,38,0,3,0,0,0,0
2,118,113,117,132,1,130,0,0,0
1,33,28,32,29,1,28,0,29,29
2,37,31,35,0,1,32,0,0,33
2,118,128,7,132,2,130,0,131,0
2,32,26,30,0,2,0,0,0,0
2,34,25,7,29,2,0,0,0,0
2,34,32,7,0,1,0,0,0,0
1,31,26,31,30,1,28,0,0,27
2,31,27,31,0,1,28,0,0,0
3,119,27,44,133,2,0,0,0,32
3,46,27,40,0,2,0,0,0,32
3,35,30,34,0,2,0,0,0,0
2,30,26,30,29,1,26,0,0,0
2,30,26,6,0,1,0,0,0,0
1,118,117,118,0,1,118,1,0,117
2,120,110,119,111,1,110,1,116,115
2,117,107,113,108,1,107,0,0,111
3,49,27,40,0,3,0,0,0,30
1,10,17,7,135,1,130,0,0,0
3,36,31,34,0,2,0,0,0,0
2,32,28,32,32,1,30,0,0,30
2,116,105,109,132,0,130,0,131,107
1,33,26,31,27,1,26,0,28,28
1,32,24,28,26,0,25,0,26,25
2,36,26,31,0,1,0,0,0,0
2,38,27,33,0,2,0,0,0,28
2,10,19,7,135,2,0,0,0,0
2,30,27,30,30,1,28,0,0,0
1,30,27,30,30,1,27,0,0,28
2,31,28,31,0,1,0,0,0,0
1,7,23,6,133,1,130,0,0,0
3,115,113,116,135,1,0,0,0,0
3,32,29,32,0,2,0,0,0,0
3,30,28,7,0,2,0,0,0,0
2,33,30,7,132,1,0,0,0,0
1,39,28,34,28,1,28,0,0,31
2,34,28,32,0,2,0,0,0,0
1,117,115,116,135,1,115,0,0,0
2,34,28,32,135,1,29,0,0,29
1,31,27,31,31,1,28,0,0,28
2,40,27,34,28,1,27,0,0,29
1,117,114,116,115,0,113,1,114,115
3,33,27,32,0,2,0,0,0,0
1,31,25,6,30,0,27,0,28,27
2,120,111,119,0,1,111,1,0,118
1,31,26,30,29,0,27,0,28,27
3,122,0,122,0,2,0,0,0,0
1,28,24,28,29,0,26,0,27,25
3,32,27,31,0,2,0,0,0,0
3,67,111,93,112,3,111,1,112,112
1,33,25,32,30,1,26,0,28,26
2,30,27,31,31,1,28,1,0,28
2,9,27,6,0,2,0,0,0,0
1,32,26,31,31,1,27,0,0,27
1,29,26,6,26,1,24,0,0,0
3,36,32,36,0,2,0,0,0,32
2,37,28,36,133,1,130,0,0,0
1,31,28,31,32,1,29,0,0,0
2,38,29,35,35,1,27,0,0,30
2,32,46,63,47,1,46,0,47,46
2,31,29,6,0,1,0,0,0,0
3,113,128,112,131,2,129,0,0,0
2,36,15,18,16,1,14,0,0,10
1,33,27,32,32,1,29,0,29,28
2,31,27,31,0,1,0,0,0,0
2,36,26,34,0,2,0,0,0,0
3,25,24,7,132,2,0,0,0,0
2,118,109,115,0,1,109,0,0,111
3,111,109,112,133,2,0,0,0,0
1,32,27,31,30,1,27,0,0,28
1,116,110,5,114,0,110,0,0,0
3,34,29,32,0,2,0,0,0,30
3,121,28,35,0,2,0,0,0,0
1,87,108,124,109,122,108,1,110,119
2,118,116,118,0,1,0,0,0,0
2,33,29,32,32,1,30,0,0,0
2,31,28,6,0,1,0,0,0,0
4,67,21,42,135,4,22,0,22,21
2,33,28,32,0,1,0,0,0,0
2,31,19,6,132,1,130,0,0,0
2,32,31,33,0,1,0,0,0,0
1,34,25,33,31,1,29,0,0,28
1,35,32,35,135,0,33,0,33,32
1,30,26,5,30,0,27,0,0,27
3,122,28,34,0,2,0,0,0,0
1,30,27,30,135,0,27,0,0,27
1,31,27,29,31,0,27,0,0,27
2,30,26,31,0,1,0,0,0,0
1,31,27,5,30,0,27,0,0,27
3,40,28,36,0,2,0,0,0,0
3,28,27,8,132,3,0,0,0,0
3,33,31,34,0,2,0,0,0,0
1,33,112,32,135,1,28,0,0,29
3,34,11,8,0,2,0,0,0,0
2,32,27,32,30,1,0,0,0,0
1,29,26,6,135,1,27,0,0,0
2,33,27,32,0,1,27,0,0,29
2,128,109,124,135,123,109,1,119,119
2,32,28,32,0,1,0,0,0,0
2,30,28,32,0,1,0,0,0,0
1,31,26,6,26,1,26,0,0,0
1,30,28,5,31,0,28,0,0,0
2,33,29,32,30,2,0,0,0,0
1,31,27,32,31,0,29,0,29,28
2,33,27,31,0,2,0,0,0,0
1,33,26,31,30,1,28,0,0,28
1,31,28,31,29,0,27,0,27,28
3,41,30,36,0,2,0,0,0,0
3,112,108,7,135,2,0,0,0,0
3,122,30,35,0,2,0,0,0,0
2,9,128,6,132,1,130,0,0,0
2,32,26,32,0,2,0,0,0,0
3,37,30,34,0,2,0,0,0,0
1,30,28,5,34,1,29,0,0,29
4,42,29,36,0,3,0,0,0,0
1,32,27,31,29,1,27,0,0,28
1,31,111,5,0,1,28,0,0,0
1,34,27,31,33,1,28,0,0,28
1,118,112,117,132,0,113,0,115,114
1,29,26,29,26,1,26,0,0,27
1,30,27,30,29,0,27,0,28,28
3,35,29,33,0,2,0,0,0,0
1,32,27,31,30,1,28,0,29,29
1,31,27,31,29,0,28,0,29,28
2,35,28,34,29,1,29,0,0,30
2,8,128,6,132,1,130,0,0,0
2,40,27,35,0,2,0,0,0,0
1,31,25,28,26,1,24,0,0,29
3,87,109,119,130,2,129,0,130,111
2,45,23,36,0,2,0,0,0,27
2,35,29,34,0,1,30,0,30,30
3,9,0,8,0,2,0,0,0,0
1,33,28,32,30,1,28,0,0,29
3,41,27,35,0,3,0,0,0,0
3,121,29,37,0,2,0,0,0,30
1,118,109,117,132,1,130,0,0,116
0,60,17,27,12,0,18,0,19,18
3,11,11,8,131,2,0,0,0,0
1,8,128,6,132,0,130,0,131,0
1,30,25,29,135,0,25,0,27,27
3,38,30,36,0,2,0,0,0,0
2,36,28,33,0,2,0,0,0,0
2,30,28,30,0,1,0,0,0,0
2,35,27,33,0,2,0,0,0,0
2,34,27,33,0,2,0,0,0,29
2,36,109,120,0,2,109,1,0,118
1,31,26,30,32,0,27,0,28,28
2,120,119,120,0,1,0,0,0,120
2,31,28,31,0,2,0,0,0,0
2,35,27,7,29,1,27,0,0,0
1,37,26,33,27,1,27,0,0,29
2,30,25,6,133,1,0,0,0,0
3,118,0,118,0,2,0,0,0,0
3,39,27,36,0,2,0,0,0,0
2,119,110,118,131,1,130,0,131,115
2,118,115,6,132,1,130,0,0,0
1,31,27,31,28,1,27,0,0,28
3,34,0,33,0,3,0,0,0,0
85,129,53,129,54,122,53,1,54,54
2,36,26,33,0,2,0,0,0,0
1,29,27,4,31,0,28,0,0,0
3,36,27,32,0,2,0,0,0,29
3,117,128,116,131,1,129,0,0,0
2,30,27,31,31,1,28,0,0,0
2,32,29,32,0,1,0,0,0,0
2,39,30,34,0,2,0,0,0,31
1,32,27,30,28,1,27,0,0,27
2,35,28,33,0,2,0,0,0,30
1,119,110,119,135,1,109,1,119,117
1,31,28,31,30,1,28,0,0,0
1,29,26,5,32,1,28,0,0,27
1,34,31,5,135,1,0,0,0,0
2,35,118,33,133,1,130,0,131,118
3,34,30,33,0,2,0,0,0,0
1,32,28,32,33,1,29,0,0,29
2,8,28,6,134,1,0,0,0,0
2,32,29,33,0,2,0,0,0,0
1,32,29,33,33,1,30,0,0,30
1,120,112,120,133,0,112,0,120,119
2,32,27,32,0,2,0,0,0,0
21,70,3,42,5,29,4,0,4,2
3,36,28,32,0,2,0,0,0,0
1,29,27,31,32,1,28,0,29,28
1,32,28,32,31,1,29,0,0,28
2,33,28,33,33,1,30,0,0,30
1,30,28,5,31,0,29,0,29,28
2,32,27,7,31,1,28,0,0,0
0,30,26,29,29,0,27,0,27,26
2,34,29,6,0,1,0,0,0,0
1,31,26,30,31,0,27,0,28,27
2,34,24,29,29,1,25,0,0,26
3,46,26,38,0,2,0,0,0,29
1,34,25,33,30,1,27,0,0,29
3,122,30,37,0,2,0,0,0,31
1,30,28,5,135,1,0,0,0,0
2,34,30,34,34,1,30,0,0,31
1,34,28,33,33,1,29,0,0,29
1,30,27,30,27,1,27,0,0,27
3,56,28,41,0,2,0,0,0,29
2,32,29,32,0,2,0,0,0,0
1,31,26,6,31,1,27,0,0,27
3,46,28,40,0,3,0,0,0,0
2,32,30,7,132,1,130,0,0,0
1,31,24,29,26,0,24,0,25,25
1,30,26,30,29,0,27,0,28,27
3,38,29,35,0,3,0,0,0,0
2,32,29,31,0,2,0,0,0,0
2,13,11,8,16,2,13,0,0,0
2,118,128,7,132,2,130,0,0,0
3,34,26,33,0,2,0,0,0,0
3,122,28,35,0,2,0,0,0,0
2,116,114,116,132,1,130,0,0,0
2,28,23,7,135,1,0,0,0,0
2,114,111,6,0,1,0,0,0,0
3,27,11,9,11,2,0,0,0,0
3,117,128,7,131,2,130,0,0,0
3,37,113,122,0,2,0,1,0,120
3,117,106,116,0,2,0,0,0,0
3,38,28,34,0,2,0,0,0,0
2,31,25,6,30,1,27,0,0,0
1,29,27,6,32,1,28,0,0,0
4,41,28,37,1,3,0,0,0,30
3,38,29,34,0,3,0,0,0,0
2,119,113,116,0,1,0,0,0,0
1,30,27,6,135,1,28,0,0,0
2,118,128,7,132,1,130,0,131,0
1,120,29,37,31,1,29,0,30,29
2,41,27,34,24,1,29,0,0,29
1,115,113,114,135,0,116,0,116,114
2,34,27,32,0,1,28,0,0,28
1,32,27,32,32,0,29,0,30,29
3,10,128,7,132,2,130,0,0,0
2,31,27,31,32,1,28,0,0,0
4,59,29,43,0,4,0,0,0,29
2,34,28,33,0,1,29,1,0,29
1,37,25,32,28,1,27,0,27,26
2,30,26,6,29,1,27,0,0,0
2,30,28,6,134,1,0,0,0,0
4,44,27,38,0,3,0,0,0,0
3,41,29,37,0,3,0,0,0,0
1,31,27,30,29,1,28,0,0,28
1,33,28,32,32,1,29,0,0,30
2,119,116,118,133,1,130,0,0,0
3,40,29,36,0,3,0,0,0,0
3,122,30,35,0,2,0,0,0,0
2,35,27,32,30,1,28,0,0,28
3,43,27,37,0,2,0,0,0,30
3,34,0,34,1,3,0,0,0,0
1,32,30,32,32,1,29,0,0,31
2,35,28,32,0,2,0,0,0,29
2,32,28,7,134,1,0,0,0,0
2,36,28,32,31,1,0,0,0,0
3,120,108,119,131,2,129,0,131,110
4,120,29,45,1,3,0,0,1,32
2,32,29,6,0,1,0,0,0,0
1,32,27,31,29,0,27,0,28,27
3,35,29,33,0,2,0,0,0,0
1,31,29,31,32,1,30,1,0,29
1,118,116,118,121,1,118,0,118,117
3,90,109,38,0,2,0,0,0,111
2,22,36,40,39,1,37,0,0,36
1,30,27,5,29,1,27,0,0,0
2,27,49,51,37,1,49,0,0,48
2,32,27,31,0,2,0,0,0,0
2,36,28,34,0,1,28,0,0,29
2,35,28,33,31,1,29,0,0,30
1,34,23,7,24,1,23,0,0,27
2,34,28,33,0,2,0,0,0,0
1,31,28,31,31,1,29,0,0,28
2,31,26,30,31,1,28,0,0,0
1,31,27,31,31,0,28,0,29,28
2,119,28,39,0,2,30,0,31,31
2,17,11,7,132,2,0,0,0,0
1,31,28,31,28,1,28,0,0,28
2,29,26,5,0,1,0,0,0,0
2,37,24,31,26,1,24,0,0,24
3,34,0,33,0,2,0,0,0,0
1,32,27,30,29,1,27,0,0,27
2,35,29,34,33,1,0,0,0,0
2,112,110,6,133,1,130,0,0,0
136,93,112,121,0,123,112,0,120,119
2,116,109,115,113,1,0,0,0,0
4,45,29,39,0,3,0,0,0,0
1,31,29,31,30,0,29,0,30,30
2,31,25,7,30,1,0,0,0,0
136,28,22,27,134,0,25,0,25,24
1,34,27,31,29,1,27,0,0,28
3,32,0,7,0,2,0,0,0,0
1,33,28,32,30,1,29,0,30,29
1,32,28,32,30,1,28,0,0,29
2,31,27,6,0,1,0,0,0,0
3,20,16,7,133,2,0,0,0,0
4,44,28,38,1,3,0,0,0,0
2,32,30,6,0,1,0,0,0,0
2,33,29,33,0,2,0,0,0,0
3,120,26,41,0,2,0,1,0,30
3,34,10,14,133,2,0,0,0,0
3,35,27,32,0,2,0,0,0,0
4,117,128,9,131,3,129,0,0,0
1,30,29,32,30,1,29,0,0,0
2,32,16,7,133,1,130,0,0,0
3,43,27,37,0,2,0,0,0,30
2,32,26,7,0,2,0,0,0,0
2,32,28,32,135,1,29,0,0,28
2,115,108,114,135,1,109,0,0,0
124,9,16,8,0,128,0,1,109,24
2,35,27,32,0,1,0,0,0,0
2,32,30,32,31,1,0,0,0,0
2,29,27,30,0,1,0,0,0,0
2,119,117,118,135,1,0,0,0,0
2,31,27,6,0,1,0,0,0,0
1,30,25,29,30,0,25,0,27,26
2,32,26,31,0,1,0,0,0,0
3,121,28,38,0,2,0,0,0,0
2,33,30,33,0,2,0,0,0,0
2,122,120,122,0,2,0,0,0,0
2,34,30,34,0,1,0,0,0,0
3,35,29,34,0,2,0,1,0,31
2,115,112,114,135,1,130,0,0,0
1,32,30,6,135,0,130,0,0,31
1,36,22,32,22,1,21,0,0,28
2,31,28,31,31,1,29,0,0,0
2,117,107,116,135,1,117,1,117,115
2,33,27,32,28,1,28,0,0,0
2,34,25,8,29,2,0,0,0,0
1,34,26,32,29,1,28,0,29,28
2,64,53,58,0,1,54,0,0,54
1,30,26,5,29,0,27,0,0,27
2,40,29,35,0,1,0,0,0,31
1,31,25,29,28,0,26,0,27,26
3,36,28,34,0,2,0,0,0,0
2,119,26,35,26,1,28,0,0,28
2,34,26,31,31,1,0,0,0,0
1,29,25,5,29,0,26,0,0,26
2,120,110,120,111,1,110,1,0,118
1,33,30,33,33,1,29,0,0,30
2,7,114,6,135,1,0,0,0,0
2,31,24,7,133,1,0,0,0,0
3,41,29,36,0,2,0,0,0,0
1,35,26,33,29,0,27,0,29,27
2,32,27,31,0,2,0,0,0,0
3,32,27,7,0,2,0,0,0,0
2,32,28,32,0,2,0,0,0,0
3,122,120,122,0,2,0,0,0,0
3,39,28,36,0,3,0,0,0,0
1,33,29,32,110,0,29,0,119,118
1,8,24,6,135,0,29,0,0,0
1,29,26,29,27,0,26,0,27,26
2,30,27,30,32,1,0,0,0,0
2,31,28,31,0,1,0,0,0,0
4,115,0,8,0,3,0,0,0,0
2,11,128,7,130,1,129,0,0,0
3,36,28,34,0,3,0,0,0,0
2,36,26,33,0,2,0,0,0,29
2,123,121,123,122,1,120,0,0,0
2,89,108,89,109,123,108,1,109,110
1,38,23,30,27,1,24,0,25,24
1,43,25,38,29,1,26,0,26,25
2,40,27,36,0,2,0,0,0,30
2,119,128,118,132,1,130,0,0,0
2,31,27,31,0,1,28,0,0,0
2,32,28,32,0,1,28,0,0,0
3,116,0,7,135,2,0,0,0,0
2,30,27,6,0,1,0,0,0,0
1,33,28,31,32,1,29,0,0,29
2,28,24,6,0,1,0,0,0,0
3,34,29,33,133,3,0,0,0,0
2,10,128,7,132,2,130,0,0,0
3,11,128,8,132,2,0,0,0,0
2,32,28,32,0,1,0,0,0,0
1,21,16,6,18,1,16,0,0,0
2,119,127,120,130,1,129,0,130,127
3,39,27,36,0,2,0,0,0,0
1,11,10,6,11,1,10,0,0,0
1,29,26,29,32,0,27,0,0,28
2,31,29,6,135,1,0,0,0,0
1,33,28,32,31,1,29,0,0,29
1,113,128,6,132,0,130,0,131,128
2,36,26,33,30,2,0,0,0,27
2,31,29,32,0,1,0,0,0,0
3,34,28,34,0,2,0,0,0,0
2,118,109,6,132,1,130,0,0,0
1,34,27,32,28,1,27,0,28,29
2,31,27,31,30,1,27,0,0,28
3,115,110,7,133,2,0,0,0,0
2,118,117,118,0,1,0,0,0,0
1,31,26,6,135,1,27,0,0,0
3,35,28,32,0,2,0,0,0,0
1,34,24,6,25,1,23,0,25,24
2,43,28,37,28,2,28,0,0,28
2,32,27,31,32,1,28,0,0,28
1,31,26,30,27,1,27,0,0,27
1,31,26,6,135,1,29,0,0,0
2,40,24,35,29,1,27,0,0,28
2,43,28,39,32,1,29,1,30,29
2,35,29,33,0,2,0,0,0,0
1,28,25,28,30,0,25,0,27,27
2,33,29,32,0,1,0,0,0,0
2,36,25,32,0,1,0,0,0,0
2,34,28,33,0,2,0,0,0,0
2,31,23,7,27,1,0,0,0,0
2,116,109,115,135,1,109,0,0,111
1,90,111,121,133,122,111,1,113,113
0,41,16,28,18,0,16,0,17,16
2,32,28,31,0,2,0,0,0,0
2,32,28,32,0,1,28,0,0,0
2,35,24,30,28,1,26,0,0,0
1,34,12,8,13,1,12,0,0,10
3,34,25,7,0,2,0,0,0,0
3,34,31,34,0,2,0,0,0,0
3,34,30,34,0,3,0,0,0,0
1,31,27,31,31,1,28,0,29,28
1,28,26,5,28,1,26,0,0,26
2,30,27,6,0,1,0,0,0,0
2,32,30,32,0,1,0,0,0,0
1,32,27,31,29,1,28,0,0,27
2,33,29,33,0,2,0,0,0,0
2,119,111,117,133,1,130,0,0,0
2,36,24,35,133,1,130,0,0,0
2,114,128,6,132,1,130,0,0,0
2,33,28,32,0,2,0,0,0,0
1,30,25,5,29,1,27,0,0,0
2,28,26,6,0,2,0,0,0,0
1,30,25,5,30,0,25,0,26,28
1,119,111,117,122,1,111,0,0,116
1,31,28,31,32,1,29,0,0,29
1,113,111,113,23,1,111,0,112,111
2,30,28,6,132,1,130,0,0,0
2,115,107,114,135,1,130,0,0,0
3,36,13,10,13,2,0,0,0,0
2,32,27,31,0,2,0,0,0,28
2,36,28,33,0,1,29,0,0,28
3,32,30,7,0,2,0,0,0,0
1,31,26,5,32,1,29,0,0,0
2,32,28,6,0,2,0,0,0,0
2,51,22,40,23,2,28,0,0,29
1,33,28,32,30,1,28,0,28,28
2,123,121,123,121,1,120,0,122,122
2,52,29,38,29,2,27,0,0,29
2,31,28,31,0,1,0,0,0,0
2,118,108,112,131,2,130,0,0,0
1,119,27,35,27,1,27,0,30,28
1,32,28,32,32,1,29,0,0,28
2,32,26,32,26,1,26,0,0,28
1,32,27,30,135,1,26,0,28,27
1,31,28,6,33,1,28,0,0,0
2,33,26,32,0,1,0,0,0,0
1,31,27,31,31,1,28,0,0,28
3,38,27,33,0,2,0,0,0,0
1,32,26,31,31,1,28,0,0,28
2,9,25,6,133,1,0,0,0,0
1,29,26,5,29,0,27,0,0,0
1,32,26,31,29,0,27,0,28,27
3,23,0,7,133,2,0,0,0,0
2,38,29,35,29,1,27,0,0,29
2,35,32,34,0,1,0,0,0,0
2,35,27,8,0,2,0,0,0,0
2,20,14,7,133,2,0,0,0,0
2,33,28,32,0,2,0,0,0,0
3,120,0,120,0,2,0,0,0,0
2,36,28,33,0,2,0,0,0,0
1,30,26,30,28,0,26,0,27,26
3,65,108,97,1,3,0,1,112,112
3,43,28,39,0,3,0,0,0,0
1,36,28,32,30,1,28,0,29,28
1,30,27,5,30,0,27,0,0,28
2,33,28,32,0,2,0,0,0,0
3,10,111,7,133,2,0,0,0,0
1,119,111,116,115,1,111,0,0,113
1,33,26,29,30,1,27,0,0,27
3,117,128,115,130,2,129,0,0,0
3,33,29,33,0,2,0,0,0,0
3,96,111,116,0,3,0,0,0,0
1,31,29,31,32,0,29,0,0,29
1,31,27,31,30,1,28,0,0,0
3,33,28,32,0,2,0,0,0,0
2,35,28,34,31,1,0,0,0,0
2,122,27,35,0,2,0,0,0,30
3,32,27,32,0,2,0,0,0,0
2,38,27,33,0,1,28,0,0,29
2,34,29,34,0,1,0,0,0,0
3,118,128,7,131,2,130,0,131,0
3,10,0,7,132,2,0,0,0,0
2,33,26,31,0,1,0,0,0,28
2,33,29,32,31,1,0,0,0,0
1,31,27,29,31,1,26,0,0,0
2,31,28,31,0,1,0,0,0,0
1,31,26,30,29,0,27,0,28,27
2,118,116,118,133,1,130,0,0,0
2,122,121,122,0,1,0,0,0,0
2,32,28,31,0,2,0,0,0,0
2,31,27,31,0,2,0,0,0,0
2,32,28,32,0,1,0,1,0,0
2,118,109,117,131,1,130,0,131,0
1,34,26,31,29,1,27,0,0,27
0,121,119,121,119,0,119,0,120,120
1,33,28,32,29,1,28,0,0,28
1,30,24,28,26,0,24,0,0,26
1,30,25,30,31,0,26,0,29,28
2,118,27,32,41,1,29,0,0,29
2,33,28,32,31,1,28,0,0,29
3,39,29,35,0,2,0,0,0,0
2,31,27,31,0,1,27,0,0,28
1,32,30,33,0,1,30,1,0,30
1,32,29,32,32,1,30,0,0,29
2,36,26,34,27,1,0,1,0,30
3,119,110,118,0,2,0,0,0,0
2,42,27,39,0,2,0,0,0,32
2,31,27,29,135,1,27,0,0,0
2,118,109,113,111,1,0,0,0,0
1,28,25,5,30,0,25,0,26,25
2,35,28,33,0,2,0,0,0,0
2,30,28,31,33,1,29,0,0,0
2,118,114,118,132,1,130,0,0,0
4,120,1,120,2,4,1,0,1,0
2,33,28,33,34,1,29,0,0,29
1,30,28,30,32,0,29,0,30,29
2,119,128,6,132,1,130,0,131,0
2,33,27,7,0,2,0,0,0,0
2,44,28,37,0,2,0,0,0,29
2,118,115,117,135,1,0,0,0,0
2,30,24,27,134,1,0,0,0,0
2,31,26,30,0,1,0,0,0,0
3,36,0,33,0,3,0,0,0,0
2,36,27,33,32,1,28,0,0,29
2,31,27,7,132,2,130,0,0,0
2,34,28,33,0,1,0,0,0,0
2,32,27,32,0,2,0,0,0,0
1,31,27,31,29,0,27,0,29,29
2,31,28,31,31,1,28,0,0,0
2,33,28,33,0,2,0,1,0,0
2,35,28,33,29,1,28,0,0,30
3,31,27,31,0,2,0,0,0,0
1,30,27,30,31,1,27,0,0,27
1,29,26,29,135,1,27,0,0,0
1,117,115,5,31,0,29,0,0,0
2,120,111,7,133,2,130,0,0,0
2,31,28,31,0,1,28,0,0,0
2,31,29,32,31,1,29,0,0,0
3,118,26,34,0,2,0,0,0,28
2,37,29,34,33,1,29,0,0,30
2,52,30,16,35,1,29,0,0,29
3,44,29,37,0,2,0,0,0,0
1,32,29,32,31,0,29,0,0,31
3,43,30,37,0,3,0,0,0,0
1,38,27,33,29,1,28,0,29,28
3,36,26,34,0,2,0,0,0,0
2,32,28,31,0,1,0,0,0,0
1,31,27,31,32,1,28,0,0,28
2,30,28,30,32,1,29,0,0,0
3,40,113,36,1,3,0,1,0,121
1,32,27,31,30,1,28,0,29,29
136,107,108,110,109,122,108,1,119,119
2,33,26,30,0,2,0,0,0,0
2,32,27,31,135,1,27,0,0,0
3,34,0,34,1,3,0,0,0,0
1,30,23,27,35,1,24,0,0,29
2,36,29,33,0,1,29,0,0,29
3,41,28,35,0,2,0,0,0,0
1,30,27,30,30,1,27,0,0,28
1,119,110,118,110,0,109,0,116,117
3,121,28,36,1,3,0,0,0,30
3,34,29,33,0,2,0,0,0,0
3,119,117,118,134,2,0,0,0,0
1,119,111,118,117,0,115,0,116,115
2,118,114,117,0,2,0,1,0,0
1,31,26,30,30,1,27,0,0,27
2,119,111,118,111,1,110,0,0,117
3,35,29,34,0,2,0,0,0,0
1,34,28,32,31,1,28,0,29,29
1,33,28,33,32,0,30,0,31,30
1,30,28,30,31,1,29,0,0,28
1,32,26,31,27,1,26,0,0,27
2,32,28,32,0,2,0,0,0,30
3,39,26,35,0,3,0,0,0,0
1,33,28,32,31,1,29,0,0,28
2,32,28,32,30,1,0,0,0,0
2,30,27,7,0,1,0,0,0,0
1,37,29,34,30,0,29,0,30,30
1,31,30,31,135,1,30,0,0,0
3,12,11,7,132,2,0,0,0,0
2,35,28,32,28,1,28,0,0,29
2,36,21,32,24,2,22,0,22,22
2,32,28,32,0,2,0,0,0,0
2,34,29,33,0,1,30,0,0,30
3,39,27,36,0,2,0,0,0,0
0,29,26,4,29,0,26,0,27,27
3,31,24,31,0,2,0,0,0,0
1,113,110,7,132,1,130,0,0,0
1,34,30,33,33,1,31,0,0,31
1,30,25,29,31,1,25,0,0,0
2,30,26,7,132,2,0,0,0,0
2,34,26,31,28,1,27,0,0,27
2,10,128,7,131,1,129,0,0,0
1,35,30,33,34,1,30,0,0,30
1,32,27,31,31,1,28,0,0,28
2,36,31,35,0,1,0,0,0,31
1,34,26,32,28,0,26,0,29,30
1,120,119,120,0,0,118,0,0,120
3,63,47,52,48,3,18,0,19,17
2,118,110,118,0,1,110,1,0,115
2,29,27,29,31,1,0,0,0,0
1,30,23,7,28,1,25,0,25,25
3,38,28,35,0,2,0,0,0,30
1,33,29,32,32,0,30,0,31,29
1,30,27,31,32,1,28,0,0,27
1,122,120,122,0,1,120,0,0,0
3,121,115,120,0,2,0,1,0,119
1,32,29,32,31,0,29,0,29,28
3,113,108,7,133,2,0,0,0,0
2,35,25,32,0,2,0,0,0,0
2,112,110,6,135,1,0,0,0,0
2,9,128,7,132,1,130,0,0,0
2,120,106,120,130,1,129,0,130,117
2,34,27,30,28,1,26,0,0,27
2,32,27,30,32,1,0,0,0,0
1,36,27,32,29,1,27,0,0,27
1,33,31,35,37,1,32,0,0,32
1,31,29,32,30,1,28,0,0,29
3,46,111,39,0,3,0,1,0,121
2,32,29,32,33,1,30,0,0,0
3,38,29,35,0,2,0,0,0,0
2,31,29,5,0,1,0,0,0,0
2,32,29,6,135,1,0,0,0,0
2,34,28,30,0,2,0,0,0,0
2,34,27,33,0,1,0,0,0,0
2,124,109,122,110,122,109,1,119,119
2,32,28,6,0,1,0,0,0,0
2,35,27,31,30,1,27,0,0,27
1,30,27,29,30,1,28,0,0,28
2,30,28,31,0,1,0,0,0,0
1,30,26,29,30,1,27,0,0,0
3,122,120,122,135,1,0,0,0,0
2,35,26,33,32,1,29,0,0,29
1,34,28,32,32,1,28,0,30,29
3,48,28,40,0,3,0,0,0,31
2,29,25,29,0,1,26,0,0,0
1,36,28,6,32,1,29,0,30,29
1,32,28,32,31,0,28,0,29,28
2,33,29,33,0,1,0,0,0,0
2,31,28,31,33,1,28,0,0,29
3,44,25,36,0,2,0,0,0,0
2,33,29,6,0,2,0,0,0,0
1,118,110,115,111,1,110,0,0,113
2,32,27,7,135,1,0,0,0,0
2,35,27,32,31,1,28,0,0,0
1,29,26,30,29,0,27,0,28,27
2,31,29,7,133,1,0,0,0,0
3,39,29,37,1,3,0,0,0,0
3,44,28,37,0,2,0,0,0,33
1,46,29,35,32,1,30,0,0,29
3,38,27,33,0,2,0,0,0,0
2,34,31,34,0,1,0,0,0,0
2,19,14,7,132,2,0,0,0,0
3,117,111,117,132,2,130,0,0,0
2,34,29,32,0,2,0,0,0,29
2,34,28,32,30,1,29,0,0,29
1,32,25,30,29,1,26,0,0,28
2,32,27,31,0,1,0,0,0,0
2,41,25,35,0,2,0,0,0,30
2,31,27,6,0,1,0,0,0,0
0,123,121,2,2,0,2,0,0,0
1,117,109,112,133,0,130,0,131,110
1,8,19,5,135,0,9,0,0,0
2,116,114,6,135,1,0,0,0,0
2,119,110,32,0,1,110,1,117,117
3,43,29,37,0,2,0,0,0,0
3,43,30,38,0,2,0,0,0,31
2,32,27,31,0,2,0,1,0,0
2,33,28,32,29,1,28,0,0,0
2,33,26,30,0,1,26,0,0,27
2,121,116,119,0,2,0,1,0,0
1,24,12,6,134,1,14,0,14,12
3,39,29,38,0,3,0,1,0,0
2,31,27,30,0,1,28,0,0,0
1,32,27,31,30,1,28,0,0,27
1,117,111,5,116,0,115,0,0,114
3,39,0,39,0,2,0,0,0,0
1,31,28,31,31,1,29,0,0,28
2,120,111,114,0,2,0,0,0,0
1,32,27,30,32,1,29,0,0,0
2,34,28,33,0,1,0,0,0,0
2,31,30,5,133,1,0,0,0,0
2,35,30,34,0,1,0,0,0,0
2,31,28,31,0,1,0,0,0,0
1,38,23,32,28,1,26,0,27,28
1,32,27,31,135,0,28,0,29,28
2,121,118,121,0,1,118,0,0,120
1,119,117,119,135,0,117,0,0,117
3,122,26,39,0,2,0,1,0,32
1,28,25,6,132,1,130,0,0,0
2,36,25,33,30,1,0,0,0,0
2,117,114,6,132,1,130,0,0,0
2,31,28,31,0,1,0,0,0,0
3,31,28,32,0,2,0,0,0,0
2,31,29,5,0,1,0,0,0,0
2,116,108,7,131,1,130,0,0,0
2,32,28,31,0,2,0,0,0,0
3,31,28,31,0,2,0,1,0,0
1,33,22,29,30,1,23,0,0,26
2,33,30,33,0,2,0,0,0,0
1,31,28,31,32,1,30,0,30,29
1,33,26,31,31,1,28,0,0,27
1,31,26,30,28,0,27,0,28,27
1,30,26,5,29,0,27,0,27,27
136,118,127,118,129,130,128,1,129,127
1,33,28,32,33,1,29,0,0,28
3,32,29,32,0,2,0,0,0,0
2,66,18,43,19,2,28,0,29,29
2,36,29,33,0,2,0,0,0,0
2,122,0,122,0,1,0,0,0,0
2,24,22,7,132,1,130,0,0,0
1,34,30,5,32,1,30,0,0,0
1,32,27,31,31,1,28,0,0,28
1,32,27,31,29,0,28,0,29,28
1,30,27,30,29,0,27,0,0,27
1,30,26,5,29,1,27,0,0,27
3,9,128,7,132,2,130,0,0,0
1,30,27,30,30,0,28,0,28,28
2,38,31,36,0,2,0,0,0,31
2,29,27,30,0,1,0,0,0,0
2,39,22,8,28,1,21,0,0,0
1,117,108,117,135,0,130,0,131,116
1,31,27,31,32,0,28,0,29,28
1,38,30,36,31,1,29,0,31,31
3,121,29,35,0,2,0,0,0,0
3,38,28,35,0,2,0,0,0,30
3,50,26,38,0,2,0,0,0,27
1,31,27,31,30,1,27,0,0,28
1,31,110,117,111,1,109,1,113,112
2,119,110,119,132,1,130,0,131,115
2,33,28,32,31,1,28,0,0,28
1,114,111,114,133,1,130,0,0,0
3,122,28,38,0,2,0,1,0,31
1,26,14,6,133,1,130,0,131,0
3,36,30,34,0,2,0,0,0,0
2,30,26,6,30,1,0,0,0,0
1,119,106,118,131,0,129,0,131,117
1,36,29,34,30,1,28,0,0,30
3,12,11,8,132,2,0,0,0,0
2,118,109,115,132,1,130,0,0,0
3,46,31,39,0,2,0,0,0,33
3,122,26,34,0,2,0,0,0,0
1,35,27,6,31,0,28,0,29,29
3,41,29,37,0,2,0,0,0,0
1,32,29,32,32,0,29,0,0,29
3,43,28,37,0,2,0,0,0,0
2,33,26,31,0,1,0,0,0,0
136,118,112,116,133,116,130,1,131,114
2,34,26,32,29,1,28,0,0,28
2,33,27,30,0,1,0,0,0,0
1,118,109,116,135,0,109,1,117,115
3,11,11,8,133,2,0,0,0,0
2,34,28,33,0,2,0,1,0,29
2,32,28,32,0,2,0,1,0,0
3,122,28,34,0,2,0,0,0,0
2,33,28,32,0,2,0,0,0,0
3,120,114,120,0,2,0,1,0,119
2,10,26,7,10,1,0,0,0,0
1,31,26,31,31,0,28,0,29,28
2,119,111,118,112,1,110,0,0,115
1,34,27,32,31,1,29,0,0,29
2,32,26,6,0,1,0,0,0,0
3,40,27,34,0,2,0,0,0,0
1,32,26,30,32,0,27,0,28,28
3,118,109,115,132,2,130,0,0,0
2,31,27,31,0,1,0,0,0,0
2,33,27,32,0,1,27,0,0,28
2,117,114,118,135,1,113,0,0,0
2,10,128,7,131,1,130,0,0,0
1,31,27,30,29,1,28,0,0,0
2,11,23,7,29,1,0,0,0,0
1,31,25,29,25,0,24,0,26,26
1,118,116,117,0,1,116,0,0,0
2,31,29,31,0,1,30,1,0,30
1,29,27,29,33,1,28,0,0,28
3,116,27,37,0,2,0,0,0,30
2,36,30,35,34,1,31,0,0,31
2,29,27,6,132,1,130,0,0,0
2,33,25,32,30,1,28,0,0,0
2,38,26,32,26,1,26,0,0,26
3,42,28,37,0,2,0,0,0,0
3,123,29,38,0,2,0,0,0,30
1,32,26,32,30,0,26,0,0,28
1,31,26,30,28,1,26,0,27,27
2,10,25,7,15,2,0,0,0,0
2,34,28,32,0,1,0,0,0,0
1,29,26,29,135,0,27,0,0,27
1,40,28,34,32,1,29,0,0,29
2,31,28,6,133,1,0,0,0,0
2,22,16,6,134,1,0,0,0,0
1,33,30,33,33,0,31,0,31,30
2,32,30,33,34,1,31,0,0,30
2,118,109,118,0,1,109,1,114,116
1,32,26,5,29,1,27,0,0,28
3,36,0,35,0,2,0,0,0,0
1,120,112,120,112,0,112,1,116,115
3,34,26,8,0,2,0,0,0,0
1,28,26,29,135,0,26,0,0,27
3,92,26,47,0,3,0,1,0,31
2,34,27,7,31,2,0,0,0,0
2,30,27,30,0,1,0,1,0,28
3,117,128,8,131,2,129,0,0,0
124,89,106,88,108,122,107,1,108,108
2,10,11,7,12,1,0,0,0,0
2,10,9,6,131,1,130,0,0,0
2,121,119,121,0,1,0,0,0,0
2,31,28,31,0,1,0,0,0,0
3,35,30,34,0,2,0,0,0,0
2,31,27,31,33,1,0,0,0,0
3,31,28,7,0,2,0,0,0,0
3,43,28,38,0,2,0,0,0,0
1,32,30,32,0,1,31,0,0,0
0,2,117,2,2,0,119,0,0,0
136,1,110,1,112,121,111,1,112,112
1,32,28,31,29,0,28,0,29,28
3,44,28,37,0,2,0,0,0,32
3,38,109,122,0,2,0,1,0,112
1,45,23,35,23,1,23,0,26,25
1,33,28,32,29,1,28,0,0,29
3,34,0,34,0,2,0,0,0,0
2,35,28,32,0,1,0,0,0,0
2,31,29,32,0,1,0,0,0,0
1,29,21,5,26,0,25,0,24,25
1,31,27,31,30,1,28,0,0,29
2,119,117,119,0,1,0,0,0,0
1,114,112,5,132,1,130,0,0,0
3,38,29,35,0,2,0,0,0,0
2,28,26,29,0,1,27,0,0,0
1,31,28,31,135,1,28,0,0,0
2,30,28,30,0,2,0,0,0,0
1,120,112,119,135,1,112,1,117,116
3,119,111,7,132,2,0,0,0,0
2,116,114,115,135,1,0,0,0,0
2,32,27,31,0,1,28,0,0,28
2,32,27,31,32,1,27,0,0,0
2,118,114,117,131,2,129,0,0,0
2,32,28,7,135,1,0,0,0,0
2,31,27,31,0,1,28,0,0,0
1,31,28,31,31,1,28,0,0,0
2,31,29,7,0,2,0,0,0,0
2,118,115,117,131,1,129,0,130,115
2,38,27,34,32,2,0,0,0,0
2,49,22,36,22,1,24,0,0,27
3,34,29,34,0,2,0,0,0,0
2,33,29,32,0,2,0,0,0,0
2,59,33,6,9,1,0,0,0,0
2,32,28,32,0,1,0,0,0,0
2,35,25,32,0,2,0,0,0,0
2,31,29,32,0,1,0,0,0,0
1,30,28,30,28,1,26,1,0,28
1,34,30,33,34,1,31,0,0,31
1,31,28,31,30,0,28,0,0,29
1,31,28,4,29,0,27,0,0,29
2,118,110,115,132,1,130,0,0,0
1,31,26,30,27,0,27,0,27,27
1,28,26,28,135,1,25,0,0,27
3,34,0,33,0,3,0,0,0,0
136,89,104,77,130,121,129,1,130,118
2,33,27,32,0,1,0,0,0,29
2,21,19,6,133,1,130,0,0,0
3,35,30,7,0,2,0,0,0,0
2,113,109,6,132,1,130,0,0,0
2,34,28,32,33,1,30,0,0,30
3,66,18,58,0,3,0,0,0,0
2,118,108,117,133,1,130,0,131,114
3,37,0,34,0,3,0,0,0,0
1,31,28,32,33,1,29,0,0,0
136,55,103,91,131,122,105,1,131,106
3,122,31,36,0,2,0,0,0,31
2,33,27,32,0,1,0,0,0,0
2,31,27,6,0,1,0,0,0,0
2,113,110,6,133,1,130,0,0,0
1,34,26,32,29,1,27,0,0,27
1,112,110,113,111,1,109,0,0,111
2,30,27,6,135,1,0,0,0,0
2,39,26,34,0,2,0,0,0,29
2,38,26,34,0,2,28,0,0,28
2,33,28,32,0,1,28,0,0,29
1,31,27,31,32,1,28,0,0,0
2,23,21,6,132,1,130,0,0,0
2,118,109,117,0,2,0,1,0,0
1,31,25,5,26,1,23,0,0,26
1,31,27,5,30,1,28,0,0,29
1,32,25,30,29,1,27,0,27,27
2,36,27,34,0,1,0,0,0,0
2,34,28,31,0,2,0,0,0,0
3,117,28,34,0,2,0,0,0,0
1,120,110,119,110,0,110,0,117,117
1,30,26,30,28,1,27,0,0,27
2,34,27,31,0,2,0,0,0,0
3,120,128,119,131,2,130,0,131,128
1,31,28,31,30,1,28,0,0,28
2,31,28,31,0,1,0,0,0,0
1,33,27,32,31,1,28,0,0,27
2,116,114,7,132,1,130,0,0,0
3,33,29,33,0,2,0,0,0,0
2,38,27,33,28,1,28,0,0,28
1,119,116,118,132,0,130,0,131,116
3,31,26,7,0,2,0,0,0,0
2,38,28,33,0,1,29,0,0,30
3,118,116,118,0,2,0,0,0,0
3,117,110,6,0,2,0,0,0,0
1,30,27,30,29,1,27,0,0,0
1,35,25,32,27,1,25,0,26,28
2,32,30,32,0,2,0,0,0,0
1,32,29,31,35,0,30,0,31,30
2,31,28,6,0,2,0,1,0,0
2,35,28,33,135,1,29,0,0,29
1,31,29,31,32,1,30,0,0,30
2,33,28,32,0,1,29,0,0,0
2,34,30,6,135,1,0,0,0,0
2,38,27,33,32,1,29,0,0,29
2,21,17,6,133,1,130,0,0,0
25,98,117,39,6,32,12,1,12,3
2,30,28,6,116,1,0,0,0,0
1,117,127,7,130,0,128,0,131,127
2,36,29,34,0,2,0,0,0,29
2,32,24,7,29,1,27,0,0,0
2,33,26,31,30,1,26,0,0,27
3,36,29,34,0,2,0,1,0,0
2,118,111,6,132,1,130,0,0,0
2,33,29,32,30,1,29,0,0,0
2,30,28,6,133,1,0,0,0,0
1,34,25,31,28,0,26,0,27,28
2,115,112,6,133,1,0,0,0,0
2,46,25,38,29,1,27,0,0,27
1,35,27,32,30,1,27,0,28,27
3,39,28,36,0,3,0,0,0,30
3,121,0,121,0,2,0,0,0,0
2,118,115,117,0,1,0,0,0,0
1,118,115,117,109,0,115,0,115,115
2,30,27,30,0,2,0,1,0,0
1,32,28,31,31,1,28,0,29,28
2,35,24,7,29,2,0,0,0,0
3,34,28,7,0,2,0,0,0,0
2,120,110,114,132,1,130,0,131,111
1,34,29,33,33,1,30,0,31,30
2,30,28,6,32,1,29,0,0,0
2,118,19,7,132,2,130,0,131,0
2,32,27,32,29,1,27,0,0,28
3,36,28,32,0,2,0,0,0,0
1,34,27,32,28,1,27,0,0,27
2,35,29,34,0,1,30,0,31,31
3,33,29,33,0,2,0,0,0,0
3,116,128,8,130,2,128,0,0,0
2,33,28,32,135,1,0,0,0,0
2,33,28,32,34,1,29,0,0,29
2,35,29,35,33,1,30,0,0,30
2,35,29,34,0,2,0,0,0,0
2,32,29,32,0,2,0,0,0,0
2,31,27,31,0,2,0,0,0,0
2,9,23,7,0,2,0,0,0,0
2,9,27,6,132,1,130,0,0,0
1,31,27,31,30,1,28,0,0,28
1,35,30,33,30,1,30,0,0,30
2,33,27,7,32,1,28,0,0,0
2,119,117,119,120,1,0,0,0,0
2,118,115,117,132,1,130,0,131,116
3,12,17,8,132,2,0,0,0,0
1,29,27,5,135,1,27,0,0,0
3,34,27,33,0,2,0,0,0,0
3,120,27,37,0,2,0,0,0,29
2,34,29,34,0,2,0,0,0,0
2,31,27,31,0,2,0,1,0,0
2,30,27,6,0,2,0,0,0,0
2,35,27,34,0,1,0,0,0,29
2,32,28,33,33,1,30,0,0,0
1,33,26,30,30,1,26,0,0,27
2,34,28,32,0,2,0,0,0,0
2,32,28,32,0,2,0,0,0,0
2,33,28,32,135,1,28,0,0,0
2,33,29,32,133,1,0,0,0,0
3,11,11,8,135,2,0,0,0,0
1,31,27,31,32,1,29,0,29,28
2,118,107,117,133,1,130,0,0,115
2,33,28,31,0,1,0,1,0,0
1,28,24,5,29,0,27,0,27,26
3,33,0,35,0,2,0,0,0,0
2,28,26,6,135,1,0,0,0,0
3,37,28,34,0,2,0,0,0,0
1,30,27,30,31,0,28,0,29,28
2,113,110,6,0,1,0,0,0,0
3,8,0,7,0,2,0,0,0,0
3,32,31,35,0,2,0,0,0,0
1,33,28,32,33,1,28,0,0,29
3,33,19,8,11,2,0,0,0,0
2,30,26,6,133,1,0,0,0,0
1,117,109,116,132,0,130,0,131,111
2,32,28,32,135,1,0,0,0,0
1,31,26,30,31,0,27,0,28,27
2,38,27,33,32,1,30,0,0,29
1,111,108,6,135,1,0,0,0,0
1,30,110,6,115,0,113,0,0,0
2,31,28,31,0,1,0,0,0,0
2,9,0,7,135,2,0,0,0,0
3,122,28,32,0,2,0,0,0,0
1,33,30,32,34,1,30,0,31,30
1,31,27,30,31,1,28,0,0,28
2,32,30,32,34,1,0,0,0,0
2,34,28,33,31,1,28,0,0,29
1,30,27,30,31,1,28,0,0,0
3,38,31,35,1,3,0,0,0,0
1,37,35,38,0,1,0,0,0,0
2,32,28,31,0,1,0,0,0,0
1,30,26,5,29,1,26,0,0,0
3,35,28,33,0,2,0,1,0,0
2,39,27,34,0,2,27,0,0,28
2,31,29,31,0,1,0,0,0,0
2,32,28,32,30,1,27,0,0,0
1,32,26,30,26,0,26,0,26,27
1,32,28,32,33,1,29,0,0,29
2,33,26,31,0,2,0,0,0,0
2,29,27,6,132,1,27,0,0,0
3,39,107,112,112,2,0,1,0,108
2,34,31,34,135,1,0,0,0,0
1,33,26,30,29,1,26,0,0,27
2,35,30,32,0,2,0,0,0,0
1,9,10,6,132,0,130,0,0,0
3,58,35,46,35,2,35,0,0,35
1,34,27,33,32,1,29,0,0,28
136,64,104,93,106,124,106,1,107,107
3,122,27,34,0,2,0,0,0,0
3,36,27,33,0,2,0,1,0,30
3,35,27,32,0,2,0,0,0,0
2,36,30,34,0,1,0,0,0,0
1,32,28,32,31,1,29,0,30,29
2,113,108,113,135,1,130,0,0,0
2,30,28,30,0,1,0,0,0,0
2,34,27,33,135,1,28,0,0,29
3,42,28,37,0,2,0,0,0,0
1,9,21,6,133,1,20,0,0,0
1,117,108,113,110,1,108,0,0,110
3,117,110,114,133,2,0,0,0,0
2,34,27,32,29,1,27,0,0,27
1,32,29,32,33,0,30,0,31,29
1,28,26,29,135,0,26,0,0,27
1,35,24,31,27,1,25,0,0,26
2,31,26,7,0,2,0,0,0,0
1,35,29,33,30,1,30,0,30,30
1,31,27,31,30,1,28,0,0,0
1,36,26,32,29,1,26,0,28,28
1,32,14,6,19,1,16,0,16,15
1,31,112,31,32,1,29,0,0,28
3,36,29,34,0,2,0,0,0,0
3,122,27,36,0,2,0,0,0,0
2,36,29,33,29,1,28,0,0,29
1,29,27,29,30,0,28,0,29,28
1,32,25,6,30,0,27,0,28,27
2,119,112,116,132,1,130,0,0,113
2,33,26,30,0,1,0,0,0,0
1,31,26,29,135,1,25,0,0,28
3,34,27,33,0,2,0,0,0,0
1,30,26,30,30,0,27,0,0,27
3,13,107,9,132,3,0,0,0,0
2,35,28,31,0,1,0,0,0,0
1,86,108,121,109,0,108,1,110,110
1,32,27,31,27,1,27,0,29,27
1,24,22,6,23,0,21,0,0,0
2,37,28,33,0,2,0,0,0,0
1,34,25,30,30,1,27,0,0,26
2,34,31,34,0,1,0,0,0,0
2,31,28,31,0,2,0,0,0,0
1,117,110,117,114,0,111,1,115,114
2,34,25,7,27,1,24,0,0,0
1,33,28,33,32,0,30,0,30,29
1,30,27,29,33,1,29,0,0,28
2,38,29,34,30,1,28,0,0,0
2,32,27,31,0,1,28,0,0,28
1,34,27,32,30,1,29,0,29,29
3,121,28,36,0,3,0,0,0,0
3,39,29,36,0,3,0,0,0,30
3,39,30,35,0,3,0,0,0,0
2,32,29,32,0,1,0,0,0,0
2,9,15,7,135,2,0,0,0,0
2,35,26,7,31,2,0,0,0,0
2,9,28,7,11,1,0,0,0,0
2,31,28,31,0,1,0,0,0,0
2,33,27,31,0,2,0,0,0,0
1,119,116,118,135,1,114,0,115,117
2,116,128,113,135,0,130,0,131,115
1,30,27,30,29,0,27,0,28,27
2,33,28,7,133,2,0,0,0,0
2,33,107,117,135,2,108,0,0,116
3,122,30,36,0,2,0,1,0,30
1,118,111,118,120,0,110,0,116,117
2,33,29,33,0,2,0,0,0,0
2,37,30,34,0,2,0,0,0,0
2,34,30,33,0,2,0,0,0,0
2,32,28,32,0,1,30,0,0,0
1,31,28,32,31,0,28,0,29,28
1,114,128,6,131,1,129,0,131,128
3,39,27,35,0,3,0,0,0,0
2,42,26,35,29,1,27,0,0,29
2,118,110,117,0,1,0,1,0,116
124,31,110,2,111,126,110,1,111,111
2,32,28,32,133,1,130,0,0,0
3,32,28,32,0,2,0,0,0,0
2,32,26,31,0,1,27,0,0,27
2,119,128,118,132,1,130,0,131,128
3,42,26,36,0,2,0,0,0,27
1,32,29,32,32,1,30,0,0,29
2,31,27,31,0,1,0,0,0,0
2,16,15,7,132,1,130,0,0,0
2,34,26,32,29,1,26,0,0,29
2,33,27,32,0,2,0,0,0,0
3,120,29,36,0,2,0,0,0,31
2,30,28,30,29,1,0,0,0,0
2,9,22,7,0,1,0,0,0,0
2,43,29,6,133,1,0,0,0,0
1,32,28,32,31,0,29,0,29,29
136,62,71,97,106,123,106,1,107,83
2,34,16,10,19,2,0,0,0,0
2,37,27,33,0,1,0,0,0,0
1,120,111,119,135,0,114,1,115,118
2,36,13,16,14,1,13,0,0,10
2,30,28,30,0,1,0,0,0,0
3,37,28,34,0,2,0,0,0,0
2,33,26,7,27,1,26,0,0,0
0,29,27,4,30,0,27,0,0,27
1,31,26,30,30,0,27,0,28,27
1,32,27,31,110,1,28,0,0,28
3,112,109,112,133,2,0,0,0,0
2,34,29,34,33,1,0,0,0,0
1,33,30,34,34,0,31,0,32,31
1,30,28,5,33,0,28,0,0,29
1,27,25,28,29,0,26,0,27,26
3,10,0,8,133,2,0,0,0,0
2,37,29,33,31,1,29,0,0,31
3,32,29,32,0,2,0,0,0,0
3,35,29,33,0,2,0,0,0,0
1,30,25,5,30,0,28,0,0,27
2,30,28,31,31,1,28,1,0,0
2,34,29,34,0,2,0,0,0,0
3,11,0,8,0,2,0,0,0,0
2,32,27,6,135,1,28,0,0,0
3,118,128,7,132,2,130,0,0,0
1,32,27,32,30,0,28,0,30,28
1,31,27,31,31,1,28,0,0,28
1,32,28,32,32,1,28,0,0,30
2,118,114,117,135,1,117,1,0,116
3,32,29,33,0,2,0,0,0,0
1,37,27,33,32,1,28,0,29,27
1,113,110,112,110,0,109,0,0,112
4,58,24,44,0,3,0,0,0,0
2,46,31,37,0,2,0,0,0,31
3,36,29,35,0,2,0,0,0,0
2,120,117,119,0,1,117,1,0,118
1,32,28,6,32,1,29,0,0,28
1,119,117,119,132,1,130,0,131,117
2,32,27,6,0,1,0,0,0,0
3,47,28,39,0,3,0,0,0,0
1,31,28,31,32,1,29,0,0,29
3,122,120,122,0,2,0,0,0,0
3,32,30,7,135,2,0,0,0,0
1,35,28,33,29,1,28,0,0,29
1,32,27,30,27,1,27,0,0,28
1,32,29,31,32,1,30,1,0,29
1,31,28,31,31,0,29,0,0,29
1,34,26,33,30,0,28,0,29,29
1,30,26,30,135,0,29,0,29,29
1,32,27,31,31,1,28,0,0,28
1,120,117,120,117,0,117,0,118,118
1,31,26,5,29,0,27,0,0,27
1,32,27,31,28,0,28,0,29,28
3,42,29,37,0,2,0,0,0,30
1,33,27,31,30,1,28,0,0,28
1,116,114,116,0,1,0,0,0,0
3,39,29,34,0,3,0,0,0,0
3,37,29,34,0,2,0,0,0,0
1,34,27,32,30,1,26,0,28,28
3,37,27,33,0,2,0,0,0,0
1,31,26,6,135,1,28,0,0,27
2,31,25,30,0,2,0,0,0,0
2,34,29,7,135,1,30,0,0,0
3,35,28,33,0,2,0,0,0,0
1,31,27,30,30,1,27,0,0,27
3,121,29,37,0,2,0,0,0,32
1,120,112,119,135,0,111,1,119,119
2,34,28,33,0,2,0,0,0,0
3,118,128,117,132,2,130,0,0,0
2,34,13,9,18,1,16,0,0,10
3,30,27,7,135,2,0,0,0,0
2,30,26,6,135,1,0,0,0,0
2,34,26,32,31,1,27,0,0,27
1,37,29,34,30,1,29,0,32,30
1,31,26,30,28,0,26,0,28,27
2,34,28,34,0,1,0,0,0,0
2,34,31,34,0,1,31,0,0,32
3,122,0,34,1,3,0,0,0,0
3,36,30,35,0,2,0,0,0,0
2,33,29,6,0,1,0,0,0,0
1,31,28,32,0,1,30,0,0,0
3,42,29,36,0,2,0,0,0,0
1,32,29,32,30,0,29,0,31,29
1,31,26,30,31,1,27,0,0,0
2,32,29,32,0,1,29,0,0,29
2,33,27,31,0,1,0,0,0,0
2,36,24,9,29,2,0,0,0,0
1,37,25,32,29,0,26,0,27,26
3,29,26,7,133,2,0,0,0,0
123,98,48,93,0,123,105,1,106,54
1,33,28,32,33,1,29,0,0,29
2,35,29,33,0,2,0,0,0,0
3,26,111,117,132,2,130,0,0,0
2,22,17,6,0,1,0,0,0,0
1,117,115,6,135,1,130,0,0,0
0,28,27,3,29,0,27,0,28,27
1,33,28,32,31,1,29,0,0,28
2,49,112,43,35,2,33,1,113,113
1,31,29,5,0,1,0,0,0,0
2,11,10,7,21,1,10,0,0,0
3,33,0,7,0,2,0,0,0,0
2,35,30,6,133,2,0,0,0,0
2,33,27,32,0,1,0,0,0,0
3,39,25,35,0,3,0,0,0,0
1,119,111,117,115,1,111,0,115,112
2,31,29,32,0,1,29,1,0,0
1,35,27,33,32,1,28,0,30,28
1,33,28,32,32,1,29,0,0,29
0,31,28,4,30,0,28,0,28,29
1,32,27,30,31,1,28,0,0,28
1,33,25,32,28,1,26,0,28,27
3,41,28,36,1,3,0,0,0,0
2,32,29,32,0,2,0,0,0,0
2,36,29,33,0,1,0,0,0,0
0,27,24,26,29,0,24,0,25,25
2,32,27,32,135,1,0,0,0,0
1,31,29,6,32,0,29,0,0,30
3,37,31,35,0,2,0,0,0,0
2,21,28,7,132,1,130,0,0,0
2,119,25,119,132,1,26,0,0,0
3,42,30,36,0,3,0,0,0,0
3,36,26,32,0,2,0,0,0,29
1,28,25,5,28,0,25,0,0,25
1,34,28,32,29,1,27,0,0,28
3,10,25,8,135,2,0,0,0,0
2,31,28,6,135,1,0,0,0,0
3,35,30,34,0,2,0,0,0,0
2,31,29,31,34,1,30,0,0,0
1,32,28,30,32,1,28,0,0,28
2,11,11,7,12,2,0,0,0,0
3,34,27,32,0,2,0,0,0,0
2,10,10,7,132,1,130,0,0,0
2,8,23,7,135,1,0,0,0,0
3,36,28,34,0,2,0,0,0,30
3,36,30,34,0,2,0,0,0,0
2,8,14,6,135,1,130,0,0,0
2,34,30,32,135,1,30,0,0,0
1,31,27,30,32,0,28,0,29,29
3,37,30,35,0,2,0,0,0,0
1,118,110,114,135,0,109,0,0,112
2,31,28,31,0,2,0,0,0,0
2,30,26,30,0,1,0,0,0,0
1,30,27,6,32,1,28,0,0,29
2,72,107,121,130,1,129,0,129,111
2,30,25,7,30,1,26,0,0,0
1,30,27,30,31,0,28,0,29,27
2,33,28,32,0,2,0,0,0,29
3,67,111,93,1,3,0,1,0,113
3,34,29,33,0,2,0,0,0,0
2,33,10,10,25,2,10,0,0,10
2,112,128,6,133,1,130,0,0,0
3,39,25,34,0,2,0,0,0,0
2,119,117,7,0,2,0,0,0,0
2,118,111,117,135,1,115,0,0,115
1,28,26,6,133,1,26,0,0,0
1,32,26,31,30,1,27,0,0,27
2,34,27,32,0,2,0,0,0,0
2,35,29,32,30,1,28,0,0,0
3,38,32,36,135,3,0,0,0,0
2,36,28,32,0,1,0,0,0,0
2,35,28,32,0,2,0,0,0,0
1,32,25,31,29,1,26,0,27,29
35,119,19,56,20,39,19,1,20,21
2,33,27,32,0,1,0,0,0,0
3,38,32,36,0,2,0,0,0,0
2,34,28,32,0,2,0,0,0,0
2,40,27,34,27,1,26,0,0,29
2,32,27,31,0,2,0,0,0,0
1,31,24,31,30,1,25,0,0,0
2,118,128,7,132,1,130,0,131,0
2,34,28,31,0,2,0,0,0,0
1,31,28,5,30,1,29,0,0,0
3,34,28,33,0,2,0,0,0,0
1,30,27,30,28,1,27,0,0,28
2,121,118,121,135,1,119,0,120,119
2,34,27,32,0,1,0,0,0,0
3,33,28,8,0,2,0,0,0,0
2,34,28,33,0,1,0,0,0,0
2,32,30,33,0,1,0,0,0,0
1,31,27,30,28,1,27,0,28,28
2,30,28,31,0,1,0,0,0,0
2,35,26,32,29,1,27,0,0,26
2,35,28,33,32,1,28,0,0,29
2,44,19,36,0,2,0,0,0,28
2,115,112,114,0,1,0,0,0,0
2,37,29,35,0,2,0,0,0,0
3,121,23,43,0,3,0,0,0,0
2,31,28,31,31,1,29,0,0,0
2,34,27,32,0,1,0,0,0,0
3,118,110,7,133,2,130,0,0,0
1,35,26,31,29,1,27,0,0,27
3,37,27,33,0,2,0,0,0,0
3,42,28,37,0,3,0,0,0,0
3,40,27,35,0,3,0,0,0,0
2,33,27,32,0,2,0,0,0,0
2,31,29,6,0,2,0,0,0,0
2,120,110,119,132,2,130,0,131,0
2,10,128,7,131,2,130,0,0,0
3,33,29,33,0,2,0,0,0,0
2,33,30,33,0,2,0,1,0,0
1,30,28,6,31,1,28,0,0,0
1,31,27,30,32,1,30,0,0,29
2,122,119,122,135,1,118,1,119,119
4,46,30,39,1,3,0,0,0,0
1,32,27,31,31,1,28,0,0,28
1,30,26,5,31,1,27,0,0,0
3,40,33,37,0,2,0,0,0,33
2,32,30,32,33,1,0,0,0,0
2,30,28,31,0,1,0,0,0,0
1,39,29,35,33,1,30,0,31,31
1,31,26,5,30,0,28,0,0,28
1,33,29,32,30,1,29,0,0,30
3,122,27,34,0,2,0,0,0,0
2,11,10,6,133,1,130,0,0,0
2,35,28,32,29,1,27,0,0,29
1,29,27,29,30,1,27,0,0,0
2,33,26,31,28,1,26,0,0,26
2,32,29,32,0,2,0,0,0,0
3,121,115,119,115,2,0,0,0,0
1,31,27,31,31,1,28,0,0,28
1,43,28,36,30,0,29,0,30,29
1,32,28,32,31,1,29,0,0,29
2,32,27,31,32,1,29,1,0,29
2,23,21,6,135,1,0,0,0,0
1,32,28,32,31,1,29,0,29,28
4,41,30,37,1,3,0,0,1,0
3,117,128,8,131,2,130,0,0,0
1,33,27,31,29,1,27,0,0,27
3,33,29,33,0,2,0,0,0,0
2,89,109,121,110,2,109,1,111,112
2,7,27,6,132,1,130,0,0,0
1,31,26,30,29,0,26,0,28,28
1,32,26,31,135,1,28,0,0,27
2,34,27,32,30,1,28,0,0,0
2,118,128,116,132,1,130,0,131,0
3,40,28,35,28,2,0,0,0,29
1,30,27,5,30,1,28,0,0,0
3,37,28,34,0,2,0,0,0,0
2,32,27,31,0,1,0,0,0,0
1,30,25,5,30,0,26,0,0,26
2,35,29,34,0,1,0,0,0,0
2,33,27,31,30,1,28,0,0,28
1,32,28,32,32,1,29,0,30,29
3,115,0,8,0,3,0,0,0,0
2,30,26,30,0,1,0,0,0,0
3,26,127,19,131,3,129,0,0,0
1,35,27,30,27,1,25,0,0,24
2,33,28,31,29,1,28,0,0,0
0,23,5,20,6,0,5,0,6,11
1,22,20,6,135,1,130,0,0,0
2,31,29,6,0,2,0,1,0,0
3,111,128,7,131,2,129,0,0,0
1,28,26,5,31,0,28,0,0,27
4,39,0,34,1,3,0,0,0,0
3,119,117,113,132,2,130,0,0,0
1,32,26,30,135,0,27,0,27,26
3,118,109,114,0,2,0,1,0,0
2,33,28,31,33,1,28,0,0,0
2,33,26,31,28,1,26,0,0,27
4,44,0,39,1,3,0,0,0,0
1,34,28,32,31,1,28,0,0,28
3,35,0,34,0,3,0,0,0,0
2,57,55,58,38,1,55,0,0,55
1,33,28,33,135,1,29,0,0,29
1,30,26,30,29,0,28,0,28,27
1,33,26,32,30,1,27,0,0,29
2,34,27,32,0,2,0,0,0,0
3,44,28,37,0,2,0,0,0,30
2,34,29,34,0,1,0,0,0,31
2,39,28,35,0,2,0,0,0,29
3,44,25,36,0,2,0,0,0,29
2,116,128,7,131,2,129,0,0,0
127,10,22,98,0,127,109,1,110,90
2,28,25,7,135,1,0,0,0,0
1,118,109,113,133,1,130,0,0,116
2,43,31,37,31,1,29,0,0,31
0,28,26,5,31,0,27,0,27,26
1,30,27,6,30,1,28,0,0,0
1,120,112,120,135,0,112,0,120,118
1,30,26,6,135,1,26,0,0,116
1,31,25,30,27,0,25,0,28,27
132,2,0,2,128,131,127,0,128,127
132,0,127,1,128,131,127,0,128,128
136,0,128,1,132,1,130,0,131,0
136,0,0,1,133,2,130,0,131,0
135,1,128,1,131,3,130,0,130,0
132,0,127,1,128,131,128,0,128,128
133,2,0,3,129,4,0,0,129,0
132,2,0,3,128,131,127,0,128,127
131,1,125,1,126,129,126,0,126,126
135,0,128,0,130,1,130,0,130,128
136,101,72,87,132,2,130,0,131,0
3,103,34,102,133,2,130,0,131,0
131,2,125,2,127,130,126,0,127,126
131,1,125,2,126,130,126,0,127,126
134,0,128,0,130,1,129,0,130,128
132,1,126,2,127,131,127,0,127,127
131,3,0,3,126,130,126,0,127,126
132,2,0,3,127,130,127,0,127,126
135,0,128,1,131,131,130,0,130,128
135,0,128,1,131,1,130,0,130,128
134,0,128,0,130,131,129,0,130,128
135,3,128,3,130,131,129,1,130,128
135,2,128,2,130,131,129,0,130,128
136,0,0,1,133,1,130,0,131,0
133,2,128,2,129,131,128,0,129,128
136,0,128,1,132,1,130,0,131,128
132,3,0,3,128,131,127,0,128,127
133,3,0,3,130,131,129,0,130,128
134,1,128,1,130,131,129,0,130,128
134,2,0,2,130,131,129,0,130,128
133,2,127,2,128,131,128,0,129,128
135,120,128,121,129,131,129,1,129,128
133,3,127,3,128,131,128,0,128,128
136,2,0,2,132,3,0,0,0,0
1,87,61,68,52,0,26,0,26,25
119,102,100,103,112,119,111,1,112,113
5,41,0,41,1,4,0,0,0,0
132,2,0,3,128,131,128,0,128,127
1,39,36,6,135,0,38,0,0,37
133,5,127,1,128,131,128,0,129,128
133,7,128,2,129,3,129,0,129,128
132,7,0,4,0,131,127,0,128,127
136,4,0,1,133,2,130,0,0,0
134,7,128,4,130,2,129,0,130,128
2,100,31,56,129,2,129,0,131,40
2,7,128,4,130,2,129,0,130,128
131,7,0,4,127,130,126,0,127,126
3,8,0,3,133,2,130,0,0,0
132,6,126,2,127,130,127,0,127,126
133,4,128,1,129,1,128,0,129,128
133,5,127,2,129,131,128,0,129,128
134,5,0,2,130,3,129,0,130,0
133,2,0,2,129,131,129,0,129,128
132,7,127,3,129,2,128,0,128,128
133,5,128,3,129,1,129,0,129,128
136,6,128,1,132,1,130,0,131,0
132,5,127,2,128,131,127,0,128,127
2,11,0,8,12,4,0,0,0,0
131,86,48,83,124,131,123,0,124,48
51,107,103,59,46,53,45,0,46,47
2,7,128,4,130,1,129,0,130,128
133,2,127,0,129,131,128,0,129,128
134,6,128,4,130,2,129,0,130,0
134,2,128,0,130,1,129,0,130,128
132,2,0,3,128,130,127,0,128,127
133,6,127,2,129,2,128,0,129,128
133,5,127,2,128,131,128,0,128,128
0,6,128,5,131,0,130,0,131,128
1,7,128,4,131,1,130,0,131,0
2,7,128,5,131,1,129,0,130,128
134,37,128,7,131,2,130,0,130,0
135,3,128,4,129,131,128,1,130,128
133,0,128,0,130,0,129,0,129,128
2,40,38,9,134,2,39,0,0,0
135,1,0,2,130,3,129,0,130,0
3,102,62,76,132,3,130,0,131,16
136,80,0,54,132,3,130,0,131,0
132,11,2,9,2,131,127,1,128,127
133,6,128,1,130,1,129,0,129,128
132,8,126,6,128,3,127,0,128,0
132,6,0,3,128,131,127,0,128,127
0,128,73,128,87,0,108,0,39,73
108,122,97,116,100,109,99,1,100,100
21,87,108,85,109,27,108,0,109,109
8,49,3,46,4,7,3,0,4,4
66,3,59,4,60,68,59,0,60,60
133,2,0,3,129,131,128,0,129,128
0,98,126,95,130,7,128,0,129,128
57,41,50,66,52,60,51,0,52,52
133,43,94,36,129,131,128,0,129,95
132,0,127,0,128,131,127,0,128,127
135,8,128,1,131,1,130,0,131,128
132,2,0,2,128,131,127,0,128,128
132,7,0,3,128,130,127,0,128,0
134,2,0,3,131,3,130,0,130,0
136,88,22,8,131,1,130,0,131,0
2,6,0,2,134,1,130,0,0,0
133,0,127,0,128,131,128,0,128,128
136,94,28,81,132,2,130,0,131,10
136,87,29,9,132,1,130,0,131,0
134,3,0,3,130,131,129,0,130,128
128,71,8,63,120,131,119,1,120,47
133,1,127,2,128,131,128,0,128,128
132,1,127,1,128,131,128,0,128,127
7,127,2,12,3,7,3,0,3,2
134,4,128,1,130,1,129,0,130,128
3,49,126,7,128,3,127,0,128,127
131,8,125,6,127,4,126,0,127,126
126,1,104,1,105,129,104,1,105,105
133,8,127,5,129,3,128,0,129,128
2,83,37,51,129,2,128,0,130,40
0,7,128,6,130,0,129,0,130,128
2,88,36,55,128,2,127,0,129,41
132,6,0,3,127,130,126,0,127,126
136,101,37,53,129,2,128,0,129,38
2,8,126,6,130,2,128,0,128,127
4,10,126,129,0,4,127,0,0,0
3,41,128,8,131,2,130,0,131,0
3,45,127,5,130,2,129,0,129,128
136,101,33,55,129,4,128,0,0,0
1,101,27,51,130,1,130,0,131,39
133,1,128,2,129,131,128,0,129,128
4,65,0,9,0,4,0,0,0,0
117,127,112,123,112,117,111,1,112,113
4,15,0,13,0,8,0,0,0,0
0,74,19,50,37,1,19,0,7,19
5,11,126,10,0,5,127,0,128,127
133,5,128,1,129,2,128,0,129,128
133,5,128,2,129,2,128,0,129,128
133,0,128,0,129,131,128,0,129,128
3,49,0,4,131,2,130,0,131,0
136,6,0,2,132,2,0,0,0,0
130,7,0,3,126,129,125,0,126,125
4,9,127,6,129,3,128,0,128,128
2,7,0,4,133,2,130,0,0,0
3,9,127,8,128,3,127,0,128,127
3,41,0,8,133,3,0,0,0,0
133,7,127,3,129,2,128,0,129,128
133,0,127,1,128,131,128,0,128,128
1,12,12,8,131,2,129,0,0,0
4,16,126,11,130,4,0,0,0,0
3,9,126,7,128,3,127,0,128,127
3,7,127,5,130,2,128,0,129,128
134,2,128,2,1,3,129,1,130,128
133,6,127,4,129,1,128,0,129,128
133,5,127,1,129,1,128,0,129,128
132,6,126,2,127,131,127,0,128,127
3,10,125,8,126,3,125,0,126,125
2,8,126,5,127,2,126,0,127,126
1,7,36,6,133,0,130,0,0,0
2,7,128,5,132,1,130,0,131,0
134,122,128,0,130,0,129,0,130,128
132,6,126,2,0,3,127,0,127,127
133,2,128,2,129,131,128,1,129,128
133,0,128,0,129,131,128,0,129,128
133,1,128,1,129,131,128,0,129,128
136,113,128,0,133,0,130,0,131,128
132,1,126,1,127,131,127,0,128,127
133,0,128,1,129,131,128,0,129,128
133,2,128,2,130,131,129,0,129,128
133,1,127,1,129,131,128,0,129,128
135,1,0,1,132,2,130,0,131,0
134,1,128,1,130,131,129,1,130,128
133,0,128,1,129,131,128,0,129,128
133,1,127,1,128,131,128,0,129,128
133,1,128,2,129,131,129,0,129,128
136,1,128,1,132,131,130,1,131,128
136,1,0,2,132,2,130,0,131,0
135,6,128,2,131,1,130,0,131,128
3,19,13,9,132,2,130,0,131,0
133,0,128,0,129,131,128,0,129,128
133,2,127,2,129,131,128,0,129,128
133,2,0,3,129,131,128,0,129,128
133,6,127,1,129,131,128,0,129,128
2,103,61,101,133,3,130,0,131,16
134,8,0,3,130,3,129,0,130,0
132,2,126,2,127,130,126,0,127,126
135,1,128,1,131,1,130,0,131,128
136,1,0,2,133,3,130,1,131,0
133,1,127,2,128,131,128,0,128,128
132,2,126,3,127,130,127,1,127,126
133,0,128,1,129,131,128,0,129,128
133,1,128,1,129,131,128,0,129,128
133,1,128,1,128,131,128,0,129,128
130,83,114,80,117,131,117,0,118,59
133,1,0,2,129,131,129,0,129,128
133,7,128,2,129,131,128,0,129,128
132,2,0,2,128,131,127,0,128,127
136,1,0,1,132,2,130,0,131,0
4,107,99,104,134,5,130,0,38,38
133,2,0,3,128,131,128,0,128,128
135,1,0,2,131,3,130,0,130,0
136,83,26,9,131,2,130,0,131,0
2,120,110,116,116,4,63,0,63,106
132,9,127,7,129,3,128,0,0,0
133,2,0,3,129,131,128,0,129,128
134,2,0,3,131,4,129,0,130,0
134,0,128,1,130,131,129,0,130,128
135,1,0,1,131,2,130,0,131,0
0,84,74,81,75,2,34,0,34,33
86,105,69,94,80,88,80,1,80,80
133,0,127,1,128,131,128,0,128,128
136,2,0,2,132,3,130,0,131,0
135,1,128,1,131,2,130,0,130,128
133,0,128,1,130,131,129,0,129,128
136,1,0,2,133,3,130,0,131,0
133,41,128,2,130,2,129,0,129,128
134,40,0,1,131,2,130,0,131,0
135,48,0,5,131,2,130,0,131,0
134,7,128,2,130,1,129,0,130,128
134,0,128,0,130,131,129,0,130,128
3,51,125,128,127,2,126,0,127,126
133,7,128,4,129,2,128,0,129,128
3,101,16,80,43,3,43,0,43,41
1,7,128,4,130,0,129,0,129,128
2,40,0,0,133,1,130,0,131,0
4,10,125,7,126,3,125,0,126,125
3,6,125,4,126,2,126,0,126,126
3,6,126,4,127,2,127,0,127,126
131,118,125,6,0,3,0,0,0,126
3,8,126,6,130,2,0,0,0,0
134,1,128,1,130,2,129,0,130,128
132,120,126,2,0,3,127,0,127,126
132,7,126,4,127,3,127,0,127,127
1,40,36,6,41,0,36,0,0,0
3,51,47,10,0,4,0,0,0,0
129,5,124,2,125,128,124,0,125,124
2,43,128,6,131,2,129,0,130,128
132,51,126,3,1,130,127,1,128,127
135,0,128,1,131,2,130,0,131,0
131,1,126,1,127,130,126,0,127,126
133,1,127,1,129,131,128,0,129,128
130,7,0,3,125,128,125,0,125,125
132,0,127,0,129,131,128,0,128,128
132,8,126,5,127,131,127,0,127,127
131,10,0,6,127,131,126,0,127,1
135,1,0,1,132,3,130,0,131,0
132,0,127,0,128,131,127,0,128,127
133,0,128,1,130,131,129,0,130,128
132,1,126,1,126,130,126,0,127,126
132,3,1,4,128,131,127,1,128,127
4,86,40,57,0,4,0,0,0,0
131,3,0,3,127,130,127,0,127,126
133,1,127,1,128,131,128,0,128,128
6,59,42,12,0,6,0,0,0,1
132,6,126,4,127,131,127,0,128,127
136,7,0,2,132,1,130,0,131,0
4,55,43,11,0,5,0,0,0,0
134,1,128,1,129,131,129,1,130,128
132,0,126,1,128,131,127,0,128,127
135,0,0,0,132,1,130,0,131,0
2,107,66,103,135,3,66,0,18,18
135,0,128,0,131,131,130,0,131,128
134,0,128,1,131,131,130,0,130,128
133,2,127,2,128,131,128,0,129,128
136,0,0,0,133,1,130,0,131,0
136,2,0,2,132,3,130,1,131,0
135,1,128,2,130,131,129,0,130,128
135,1,128,1,131,2,130,0,131,128
132,96,72,95,124,2,123,0,124,31
78,90,66,89,69,82,68,0,69,69
133,6,127,2,129,131,128,0,128,128
133,9,127,7,0,3,128,0,128,128
131,7,0,3,126,130,0,0,127,126
130,3,0,3,125,128,125,1,125,125
135,6,128,5,129,1,130,0,130,128
135,5,0,2,131,2,130,0,131,0
136,98,36,8,130,1,129,0,130,0
133,1,127,1,129,131,128,1,129,128
135,7,128,4,131,1,130,0,130,128
130,7,124,5,0,3,0,0,125,125
132,7,126,3,0,130,127,0,127,126
5,10,125,9,0,4,126,0,127,126
136,0,128,0,132,1,130,0,131,0
133,1,127,2,0,131,128,0,129,128
4,9,125,7,127,3,126,0,127,126
4,116,33,99,24,3,33,0,0,34
135,8,128,6,131,2,130,0,131,0
134,122,128,1,0,131,129,1,130,128
132,1,126,2,0,130,126,0,127,126
4,95,39,68,0,4,0,0,0,0
1,89,45,56,40,1,45,0,45,45
5,11,125,9,0,4,0,0,0,0
3,82,44,53,50,2,42,0,0,47
3,8,126,7,128,3,127,0,128,126
3,8,125,6,126,2,126,0,126,126
3,8,127,7,128,2,128,0,128,128
4,45,125,7,0,3,127,0,127,126
134,100,24,76,127,2,127,0,128,128
131,6,125,3,0,129,126,0,126,126
4,41,0,8,132,3,0,0,131,0
2,8,127,6,129,2,128,0,128,127
130,11,1,10,1,129,1,1,2,125
3,9,127,7,129,3,128,0,129,128
0,83,67,58,68,0,29,0,29,26
4,41,33,9,0,3,0,0,0,0
97,36,127,34,68,110,67,0,68,128
2,40,36,8,37,2,0,0,0,0
30,58,25,58,26,29,25,0,26,25
134,1,128,2,131,131,130,1,130,128
132,11,1,9,2,5,1,0,2,127
136,34,0,3,132,3,130,0,131,0
4,113,112,7,19,4,0,0,0,1
132,10,126,7,127,3,127,0,127,127
133,5,127,2,128,131,128,0,129,128
131,2,0,3,128,130,127,0,127,127
136,35,128,6,131,1,130,0,131,0
133,6,0,4,0,131,128,0,128,0
133,6,128,2,129,2,129,0,129,128
3,94,31,64,31,3,48,0,0,48
133,8,127,5,129,3,128,0,129,128
133,8,127,5,129,2,128,0,129,0
133,5,127,2,128,131,128,0,129,128
133,5,0,2,129,131,128,0,129,128
133,8,128,5,129,3,128,0,129,0
133,8,0,4,129,4,128,0,129,128
135,36,0,4,131,1,130,0,131,0
136,0,128,0,133,1,130,0,131,0
132,8,0,4,127,130,126,0,127,126
135,9,0,7,131,3,130,0,131,0
131,4,125,1,126,129,126,0,127,126
3,40,128,7,130,3,129,0,130,128
2,95,32,64,24,2,43,0,47,47
134,1,0,2,130,3,129,0,130,0
133,8,128,5,129,2,128,0,129,128
3,101,28,56,135,3,32,0,0,33
2,8,128,6,131,1,129,0,130,128
132,7,0,5,128,131,127,0,128,0
3,10,126,8,128,3,127,0,128,127
133,5,127,2,129,131,128,0,129,0
132,7,127,4,128,1,127,0,128,127
135,7,128,4,131,2,130,0,130,0
135,8,0,5,131,3,130,0,131,0
2,100,32,81,131,2,130,0,131,38
4,10,127,8,128,4,127,0,128,127
133,7,128,2,129,131,128,0,129,128
130,2,125,3,126,129,126,0,126,125
134,7,128,1,130,1,129,0,130,128
121,0,108,126,111,122,110,0,111,109
4,13,127,11,129,5,128,0,129,128
136,98,33,53,131,3,130,0,131,33
132,3,1,4,127,130,127,1,127,127
3,8,128,6,131,2,130,0,130,0
1,6,128,5,132,1,130,0,131,0
133,1,0,2,129,131,128,0,129,128
2,38,35,8,36,2,0,0,0,0
4,10,128,8,130,3,129,0,130,128
133,2,128,2,129,131,128,1,129,128
132,7,0,3,127,130,127,0,127,127
132,7,126,5,128,3,127,0,128,127
134,38,128,2,0,131,129,0,130,128
133,9,0,6,129,131,128,0,129,0
134,4,128,2,130,2,129,0,130,128
133,6,128,2,129,2,129,0,129,128
3,38,0,7,132,3,130,0,0,0
133,1,127,2,129,131,128,0,129,128
136,2,128,2,131,131,130,1,131,128
133,6,0,2,129,3,128,0,128,0
3,10,127,8,129,2,128,0,129,128
1,36,33,6,133,1,130,0,131,0
1,76,32,44,131,1,130,0,131,35
2,8,128,6,130,2,129,0,130,128
134,7,128,4,130,1,129,0,130,128
133,7,127,3,128,131,128,0,128,127
135,0,128,0,131,1,130,0,131,128
136,6,0,1,132,2,130,0,131,0
133,10,0,7,129,4,128,0,129,1
135,6,0,3,131,3,130,0,130,0
136,53,0,8,130,2,129,0,131,0
34,15,95,118,100,32,24,0,29,28
133,4,127,1,129,131,128,0,129,128
3,8,128,6,130,3,129,0,130,0
134,1,128,2,131,2,130,0,130,128
133,6,0,2,129,131,128,0,129,128
133,6,0,3,129,131,128,0,129,128
133,7,128,4,129,2,128,0,129,128
133,8,127,5,128,3,128,0,129,128
132,9,0,6,0,130,127,0,127,127
133,1,127,1,129,131,128,0,129,128
133,6,128,2,130,2,129,0,130,128
135,8,0,5,131,3,130,0,130,0
134,6,128,4,130,1,129,0,130,128
133,1,128,1,129,131,129,0,129,128
134,7,128,4,130,2,129,0,130,0
134,7,128,4,130,2,129,0,130,0
120,2,0,2,110,122,109,0,110,109
4,12,127,10,128,4,127,0,128,127
132,7,0,5,128,131,127,0,128,127
136,75,0,9,0,3,0,0,0,0
133,8,0,4,128,131,128,0,128,128
133,1,128,1,129,131,129,0,129,128
134,1,128,2,130,131,129,1,130,128
133,11,127,9,0,5,128,0,129,128
4,100,36,60,130,3,130,0,131,0
134,57,1,8,2,131,128,1,129,128
133,3,1,4,127,131,127,1,127,127
132,10,1,8,2,130,127,0,128,1
132,10,0,8,0,4,127,0,128,127
124,2,112,2,115,124,114,1,115,113
127,1,116,1,118,131,117,1,118,118
4,10,128,8,0,4,129,0,130,0
133,4,128,1,129,131,128,0,129,128
133,8,0,3,0,3,129,0,129,128
135,4,128,1,131,1,130,0,130,128
134,8,128,4,130,2,129,0,130,0
135,6,0,1,132,1,130,0,131,0
133,17,127,129,127,131,127,1,128,128
134,8,128,6,130,2,129,0,130,0
3,10,128,8,130,3,129,0,130,128
3,41,31,10,133,3,0,0,0,0
136,1,0,1,133,1,130,0,131,0
133,1,128,2,129,131,129,0,129,128
122,2,110,127,112,123,112,1,112,111
135,7,0,2,131,1,130,0,131,0
135,1,0,1,131,2,130,0,131,0
133,7,0,3,129,131,128,0,129,128
133,8,0,3,130,131,129,0,129,0
134,2,128,3,130,131,129,0,130,128
133,2,0,3,129,131,128,0,129,128
3,102,23,81,133,3,130,0,131,40
131,8,1,4,127,130,126,0,127,126
3,108,115,117,0,2,130,1,0,115
134,3,0,4,130,4,129,1,130,128
133,8,0,3,1,131,128,0,129,128
134,2,128,3,1,131,129,0,130,128
134,2,128,2,130,131,129,0,130,128
135,0,128,1,132,1,130,0,131,128
135,2,0,3,131,3,130,1,131,0
132,3,1,4,127,131,127,0,128,127
133,8,128,3,1,131,129,0,129,128
134,7,128,3,130,3,129,0,130,128
133,7,0,3,1,131,128,0,129,128
134,9,0,4,2,4,129,0,130,128
136,39,0,2,133,3,0,0,0,0
134,3,0,4,130,131,129,1,130,128
133,2,0,3,129,131,128,0,129,128
132,8,1,4,2,131,127,0,128,127
136,0,0,1,133,1,130,1,131,0
135,39,128,1,132,1,130,0,131,0
134,1,128,2,130,3,129,0,130,128
135,2,0,2,132,3,130,1,131,0
134,0,128,1,130,131,129,0,130,128
134,2,128,2,130,131,129,1,130,128
134,7,128,3,130,3,129,0,130,128
133,7,127,2,0,131,128,0,128,127
131,2,125,3,1,129,126,0,126,126
134,7,128,3,0,3,129,0,130,128
134,2,128,2,1,131,129,1,129,128
136,46,0,2,1,3,0,0,0,0
136,35,123,34,0,2,130,1,131,128
4,42,126,8,0,4,0,0,0,0
132,58,1,8,2,130,1,0,127,126
134,6,128,2,0,2,129,0,129,128
133,2,127,2,1,131,128,0,128,127
133,9,1,4,2,131,1,1,128,128
135,2,0,2,1,3,130,1,131,128
5,96,16,86,0,6,0,0,0,0
3,46,40,8,134,2,0,0,0,0
131,118,126,2,126,130,126,0,127,126
0,70,43,58,46,0,44,0,44,44
132,8,0,3,1,130,0,0,127,127
3,101,26,78,130,3,130,0,131,37
136,101,25,82,128,3,130,0,131,38
131,56,0,5,1,129,0,0,126,126
132,7,126,3,1,130,127,0,128,127
133,54,127,5,0,3,128,0,128,128
133,51,127,7,0,3,128,0,129,128
136,1,0,1,0,2,130,0,131,0
133,1,127,2,1,131,128,0,129,128
132,1,126,1,0,130,126,0,127,126
132,58,1,55,1,130,1,0,127,127
133,57,0,6,128,131,0,0,128,127
132,52,126,2,0,130,127,0,128,127
135,45,128,2,0,2,130,0,130,128
134,2,128,3,130,131,129,0,130,128
135,3,128,3,130,131,130,1,130,128
135,1,128,1,130,131,129,0,130,128
135,2,128,3,130,131,129,0,130,128
135,2,128,2,131,131,130,1,130,128
134,4,128,4,130,131,129,1,130,128
135,2,128,2,131,131,130,1,131,128
136,1,0,2,133,3,130,0,131,0
134,3,0,3,130,131,129,0,130,128
136,2,0,3,134,3,0,1,131,0
134,2,128,3,130,131,129,0,130,128
136,1,0,1,133,2,0,1,131,0
133,2,128,3,129,131,128,0,129,128
4,105,26,101,133,3,0,0,0,0
133,1,0,1,128,131,128,0,128,128
135,2,0,3,130,131,129,0,130,128
132,2,127,3,128,131,127,0,128,127
135,2,128,3,131,131,130,1,131,128
134,3,128,3,129,131,129,0,130,128
134,0,128,1,130,2,129,0,130,128
130,1,124,1,126,129,125,0,126,125
135,1,0,2,131,3,130,0,131,0
135,1,0,2,131,3,130,0,131,0
135,0,128,0,131,131,130,0,130,128
136,1,0,2,133,3,0,0,1,0
131,2,0,3,125,130,125,0,126,126
135,1,128,2,130,131,130,0,130,128
133,3,127,3,128,131,128,0,128,128
134,1,128,1,130,131,129,1,130,128
135,3,128,3,130,131,129,0,130,128
132,1,126,1,128,131,127,0,128,127
131,2,125,2,126,129,125,0,126,125
135,2,0,3,130,3,130,0,130,0
135,7,0,2,131,3,130,0,130,0
132,3,126,3,127,131,127,0,128,127
3,99,32,9,133,2,130,0,0,0
132,1,126,2,128,131,127,0,128,127
134,1,128,1,130,131,129,0,130,128
134,6,128,1,131,2,130,0,130,0
134,3,128,3,130,131,129,1,130,128
135,3,0,3,131,131,130,1,131,128
134,1,0,2,131,3,130,0,130,0
133,1,127,1,128,131,128,0,128,128
135,2,122,121,125,131,127,1,129,128
132,3,126,3,127,130,127,0,127,127
2,98,15,88,133,3,130,0,131,15
133,2,127,2,128,131,128,0,128,128
2,9,119,129,120,2,119,0,120,120
117,102,107,104,111,121,110,1,111,128
132,6,127,2,128,131,127,0,128,128
135,6,0,2,0,2,130,0,131,0
133,9,127,7,128,3,128,0,128,128
132,1,126,1,128,131,127,0,128,127
134,0,128,1,131,131,130,0,130,128
133,3,127,3,129,131,128,0,129,128
132,2,0,3,128,131,127,0,128,127
132,1,126,2,127,131,127,0,128,127
133,7,128,1,129,131,128,0,129,128
133,0,127,0,129,131,128,0,128,128
132,1,127,1,128,131,127,0,128,127
132,3,1,3,128,131,127,0,128,127
132,1,0,2,128,131,127,0,128,127
136,1,0,2,132,3,130,0,131,0
0,9,72,76,72,0,70,0,75,73
116,79,48,75,106,25,106,0,108,65
43,122,32,51,34,45,33,0,34,34
131,2,125,0,126,130,126,0,127,126
3,44,37,44,135,2,0,0,0,0
131,7,0,3,0,129,0,0,126,126
131,1,126,2,127,130,126,0,127,126
131,8,0,4,1,129,0,0,126,126
132,7,0,2,0,130,0,0,0,127
2,45,39,43,40,2,0,0,0,0
131,9,0,7,1,130,0,0,1,126
131,118,0,3,0,129,0,0,0,126
133,7,0,3,129,131,128,0,129,128
132,8,0,5,0,130,0,0,127,127
3,100,26,55,133,3,130,0,0,0
130,8,1,4,2,129,1,0,126,125
132,5,126,1,127,131,127,0,127,127
131,7,126,3,127,130,127,0,127,126
132,7,0,3,1,130,0,0,127,127
132,2,0,3,1,130,127,0,127,126
130,7,0,3,1,128,0,0,125,124
131,7,125,5,126,130,126,0,127,126
130,9,0,8,0,4,0,0,1,125
133,7,127,5,129,2,128,0,129,128
133,9,128,7,129,3,0,0,129,128
132,1,126,2,126,130,126,0,127,126
132,7,0,5,0,3,127,0,128,127
132,5,127,2,128,131,127,0,128,127
136,2,0,2,1,3,0,0,0,0
131,8,0,4,1,129,0,0,126,125
133,6,0,3,1,131,128,0,129,128
3,102,25,79,133,3,130,0,131,39
131,2,125,3,127,129,126,0,127,126
133,1,127,1,0,131,128,0,128,127
132,7,0,5,0,131,127,0,128,127
132,6,126,3,128,130,127,0,128,127
133,8,127,6,127,3,127,0,128,127
3,101,19,85,133,3,130,0,131,36
135,1,128,1,0,2,130,0,130,128
133,5,127,1,129,131,128,0,129,128
133,43,127,2,0,2,128,0,129,127
133,6,128,2,0,131,128,0,129,128
132,6,126,4,128,131,127,0,128,127
133,6,127,2,1,131,128,0,129,128
133,44,127,2,0,2,128,0,129,127
3,8,128,6,129,3,129,0,129,128
133,7,127,5,0,3,127,0,128,127
131,8,125,7,126,129,125,0,126,126
132,1,126,1,127,130,127,0,128,127
132,50,126,7,127,3,127,0,127,126
129,88,0,51,1,129,0,0,1,1
133,8,0,4,129,131,128,0,129,128
135,1,128,1,131,2,130,0,131,0
135,12,128,9,129,5,128,0,129,2
134,0,128,1,130,131,129,0,130,128
135,96,14,12,129,3,129,0,129,0
131,5,125,2,127,129,126,0,127,126
133,2,128,2,129,131,128,1,129,128
3,45,41,10,42,3,0,0,0,0
133,8,0,4,129,131,128,0,129,0
133,6,128,2,130,2,129,0,130,0
131,1,126,1,127,130,126,0,127,126
133,1,128,1,129,131,129,0,129,128
132,6,0,2,128,131,127,0,128,127
133,2,128,2,129,131,129,0,129,128
132,2,126,3,128,131,127,0,128,127
133,1,127,1,128,131,128,0,129,128
132,2,0,3,128,131,127,0,128,127
133,2,0,2,130,131,129,0,129,128
130,4,2,5,126,129,125,1,126,125
133,4,1,4,128,131,128,0,128,128
133,1,127,2,129,131,128,0,128,128
136,99,20,10,131,2,130,0,131,0
5,15,126,11,128,5,127,0,128,127
6,35,17,20,19,5,0,0,0,0
136,98,32,49,128,3,127,0,129,0
0,108,96,103,100,0,12,0,20,32
132,1,126,1,127,130,127,0,127,126
87,18,71,105,134,104,71,0,79,80
7,22,56,16,17,9,0,0,0,14
132,5,126,1,126,130,126,0,127,126
133,4,127,0,129,0,128,0,129,128
133,6,127,2,129,2,128,0,129,128
133,7,127,5,129,1,128,0,129,128
4,8,128,7,0,3,128,0,129,128
133,7,127,4,129,2,128,0,129,128
135,38,34,5,132,0,130,0,131,0
132,7,126,2,127,130,127,0,127,126
132,5,126,1,128,131,127,0,128,127
133,2,0,2,128,131,128,0,128,128
3,9,0,7,131,3,130,0,131,0
132,7,0,3,0,131,127,0,128,127
135,1,128,1,131,131,130,1,131,128
135,0,128,0,131,131,130,0,131,128
134,121,128,122,129,131,129,1,129,128
133,7,127,1,129,131,128,0,128,128
3,10,124,7,125,4,125,0,125,125
3,7,126,5,127,2,127,0,127,126
1,7,127,5,129,1,128,0,129,128
3,8,126,6,127,2,127,0,127,127
135,7,128,5,130,1,130,0,130,128
4,8,127,6,0,3,128,0,128,128
2,7,127,5,128,2,127,0,128,127
3,8,126,6,0,3,127,0,127,126
132,6,0,3,0,3,127,0,128,127
133,0,128,0,129,131,128,0,129,128
132,8,127,5,128,3,127,0,128,0
132,1,126,1,128,131,127,0,128,127
3,8,0,5,133,2,130,0,0,0
132,1,126,1,128,130,127,0,128,127
132,8,127,5,128,2,127,0,128,127
136,6,0,1,133,1,130,0,131,0
130,6,0,3,0,129,125,0,126,125
136,1,0,2,133,3,0,0,0,0
135,1,128,1,131,131,130,0,130,128
134,1,0,1,131,2,130,0,131,0
134,1,0,1,131,2,130,0,130,0
3,43,128,6,130,2,129,0,130,128
3,46,37,43,0,2,0,0,0,0
133,48,127,7,0,3,128,0,129,128
132,57,126,7,127,130,0,0,127,127
133,47,127,5,128,131,128,0,128,128
4,59,126,57,126,4,0,0,126,127
3,53,126,53,127,2,127,0,128,127
131,60,0,60,1,130,0,0,124,126
2,36,128,33,129,2,129,0,129,128
3,58,126,9,129,3,127,0,128,127
4,51,126,7,128,3,127,0,128,127
3,49,126,7,0,3,127,0,128,127
3,53,126,9,127,3,127,0,127,127
2,45,128,6,132,2,130,0,131,0
134,36,128,1,131,1,130,0,130,0
4,9,127,7,129,3,128,0,129,128
130,10,125,8,1,4,0,0,1,125
4,60,125,8,0,4,126,0,0,126
3,7,127,5,129,2,128,0,129,128
4,10,123,8,0,3,0,0,124,124
1,40,128,5,132,0,130,0,131,0
3,46,128,46,129,3,129,0,129,128
3,42,128,42,132,2,0,0,0,0
5,51,128,10,131,4,0,0,1,1
3,48,125,7,127,3,126,0,127,126
5,62,125,8,126,4,0,0,126,126
2,8,128,6,129,1,129,0,129,128
4,57,127,7,129,3,128,0,129,128
135,7,0,1,132,2,130,0,131,0
136,0,0,0,132,0,130,0,131,0
2,26,128,6,131,1,130,0,131,128
0,68,65,3,70,0,67,0,68,66
120,75,37,72,104,131,104,0,105,58
18,25,13,23,14,18,14,0,14,14
127,21,121,2,124,127,123,1,123,122
64,87,9,84,27,68,27,0,27,26
135,3,0,3,131,4,130,0,130,1
133,0,128,0,130,131,129,0,130,128
133,1,128,2,130,131,129,0,129,128
134,1,128,1,130,131,129,0,130,128
131,117,125,119,126,130,126,1,126,126
132,1,0,2,128,131,127,0,128,127
132,1,126,2,127,131,127,0,128,127
132,2,0,3,128,131,127,0,128,127
133,6,0,2,129,131,129,0,129,128
135,2,128,3,130,131,130,1,130,128
133,3,0,3,129,131,129,0,129,128
133,1,127,2,128,131,128,0,129,128
133,2,0,3,128,131,128,0,128,127
133,0,127,0,128,131,128,0,128,128
134,0,128,0,130,131,129,1,130,128
130,8,0,4,1,128,0,0,124,124
0,3,3,2,6,0,3,0,3,2
16,108,56,105,57,27,71,0,72,56
39,73,34,42,36,38,35,1,35,35
61,94,56,92,58,61,57,0,58,57
48,100,42,92,43,47,43,1,43,43
129,89,123,88,123,128,123,1,124,124
3,41,127,7,0,2,128,0,129,128
75,44,25,41,25,124,25,1,62,26
22,68,53,61,18,22,17,0,18,17
58,16,53,15,54,57,53,1,54,53
119,77,49,74,110,121,109,0,109,49
132,6,126,1,0,130,127,0,127,126
132,1,126,1,127,131,127,1,128,127
133,46,127,6,128,1,127,0,128,127
134,43,128,3,1,131,129,1,129,128
5,63,124,58,1,5,0,0,1,124
133,120,127,2,128,131,128,0,128,127
3,49,125,48,0,3,126,0,126,125
132,46,126,0,127,131,127,0,128,127
5,66,118,62,2,130,1,0,125,126
127,108,117,109,118,127,118,1,119,122
0,55,44,51,127,0,126,0,127,128
133,54,128,5,128,131,128,0,128,128
131,64,0,59,1,129,0,1,124,125
132,7,126,4,128,130,127,0,128,127
129,2,0,3,1,128,0,0,125,124
131,52,126,3,1,130,126,0,127,126
133,2,127,3,128,131,128,1,129,128
132,48,127,0,128,131,127,0,128,127
133,1,127,2,0,131,128,0,128,127
4,51,126,8,0,3,127,0,127,126
133,46,127,1,0,131,127,0,128,127
131,52,125,8,0,3,0,0,127,126
3,52,126,6,128,2,127,0,128,127
132,50,126,2,0,131,127,0,128,127
133,5,127,1,128,131,127,0,128,127
132,5,126,1,127,130,127,0,127,127
133,8,0,6,127,131,0,0,128,127
130,10,0,8,1,4,0,0,126,125
4,57,126,7,0,3,127,0,128,127
132,59,0,7,1,130,0,0,127,127
134,52,128,3,1,3,129,0,130,128
1,43,128,6,130,1,129,0,130,128
132,7,126,2,127,130,127,0,127,126
135,1,128,1,132,2,130,0,131,0
3,8,127,7,130,2,128,0,129,128
131,5,125,2,127,130,126,0,127,126
4,12,0,10,0,5,0,0,0,0
128,92,122,129,123,128,123,1,123,123
6,17,15,15,0,10,0,0,0,0
134,0,128,1,131,1,130,0,130,128
132,7,126,3,128,131,127,0,128,127
133,7,127,3,129,131,128,0,129,128
133,6,128,1,130,1,129,0,130,128
132,0,127,1,128,131,127,0,128,127
134,7,128,1,131,1,130,0,130,0
5,125,120,124,106,6,105,0,106,95
86,90,81,87,135,86,82,1,83,82
133,2,128,2,129,131,129,0,129,128
134,1,128,2,130,131,130,1,130,128
131,9,0,7,127,4,126,0,127,0
5,77,37,62,0,4,0,0,0,0
134,8,128,3,0,2,129,0,129,128
3,40,127,6,130,2,128,0,129,128
4,8,0,2,0,2,0,0,0,0
26,109,63,107,135,33,63,0,2,47
41,82,37,45,37,41,37,0,37,37
101,126,72,41,75,112,74,0,75,28
118,124,114,122,0,118,114,1,115,114
6,75,101,40,102,13,101,0,102,109
2,119,109,119,0,1,118,1,118,117
3,44,0,44,0,3,0,0,0,0
95,105,87,103,89,96,88,0,89,89
31,126,104,126,134,48,82,0,82,82
3,45,36,8,41,2,0,0,0,0
61,12,56,65,56,60,56,1,56,56
4,46,0,7,1,3,0,0,0,0
131,9,0,7,1,129,0,0,1,126
132,1,0,2,127,131,127,0,127,127
135,36,128,6,0,2,130,0,130,128
132,51,126,5,126,1,126,0,127,126
133,6,127,2,128,131,128,0,128,127
6,57,125,10,1,5,1,0,126,126
3,48,110,114,112,2,111,0,0,0
134,47,128,3,1,3,0,0,129,128
3,8,127,6,129,2,128,0,129,128
4,50,128,6,0,3,0,0,130,128
3,8,126,6,128,2,127,0,127,126
1,39,36,4,133,0,130,0,131,0
133,37,0,2,0,131,127,0,128,128
133,52,127,6,0,3,128,0,128,127
3,9,0,7,0,2,0,0,0,0
133,0,128,1,129,131,129,0,129,128
2,39,38,7,135,2,130,0,0,0
135,2,0,2,131,3,130,0,131,0
133,1,128,2,129,131,128,0,129,128
133,1,127,1,129,131,128,0,128,128
133,7,127,2,129,131,128,0,129,128
136,1,0,2,133,3,130,1,131,0
136,1,0,2,133,3,0,0,0,0
133,1,128,2,129,131,129,0,129,128
134,0,128,0,130,131,129,0,129,128
136,1,0,2,133,3,130,1,131,0
136,101,13,79,133,2,130,0,131,0
136,1,0,2,133,3,130,1,131,0
133,2,127,3,129,131,128,0,129,128
6,40,38,12,0,5,0,0,0,0
133,1,127,1,129,131,128,0,129,128
132,2,127,3,128,131,127,0,128,127
136,101,21,9,132,2,130,0,131,0
136,1,0,2,133,3,0,0,1,0
133,2,128,3,129,131,128,0,129,128
132,2,126,3,127,130,127,0,127,127
132,1,127,1,128,131,127,0,128,127
134,0,128,0,130,131,129,0,130,128
134,0,128,1,130,131,129,0,130,128
135,2,0,3,132,4,130,0,131,1
133,0,128,1,130,131,129,0,129,128
132,2,126,2,127,131,127,0,127,127
136,1,0,2,133,3,130,1,131,0
136,101,31,82,132,3,130,0,131,0
136,1,0,2,133,2,0,0,0,0
135,1,128,1,131,131,130,0,131,128
136,2,0,2,133,3,130,0,131,0
132,2,0,2,127,131,127,0,128,127
135,114,124,115,127,131,127,1,128,128
0,6,10,4,15,0,11,0,2,4
4,12,0,9,0,3,0,0,0,0
133,2,127,1,128,131,128,0,128,127
134,1,128,1,129,131,129,0,129,128
4,82,26,10,0,4,0,0,0,0
132,2,0,2,127,131,127,0,128,127
133,2,127,3,128,131,128,0,128,128
132,11,1,5,3,130,2,0,126,127
133,8,127,2,129,2,128,0,129,128
133,0,128,0,129,131,128,0,129,128
130,2,0,3,125,129,125,0,126,125
3,103,27,53,131,3,130,0,131,35
136,101,35,46,130,2,129,0,131,0
131,2,0,2,126,130,126,0,127,126
134,8,128,2,0,3,129,0,130,128
134,1,128,1,130,131,129,0,130,128
130,7,0,2,0,129,125,0,126,125
133,7,127,2,0,131,128,0,128,127
131,7,125,5,0,129,126,0,127,126
131,7,0,3,1,130,126,0,127,126
131,8,125,3,1,129,126,0,127,126
131,7,0,3,0,130,0,0,126,126
133,7,127,2,128,2,128,0,128,127
131,5,125,1,0,129,126,0,127,126
133,7,127,2,0,131,128,0,128,127
131,8,0,4,1,129,126,0,127,126
132,7,0,3,1,130,0,0,128,127
131,1,125,2,126,129,126,0,126,126
2,42,127,6,129,1,128,0,129,127
2,101,37,55,130,2,130,0,131,40
133,6,127,2,0,131,128,0,129,128
4,11,127,9,129,4,128,0,129,127
132,2,126,2,127,130,127,0,127,127
2,63,128,49,128,131,127,0,128,128
3,54,126,8,127,3,126,0,127,126
3,45,128,47,129,3,129,0,130,128
133,58,127,6,0,3,127,0,128,127
133,52,127,6,128,3,128,0,128,127
132,60,0,7,1,130,0,0,126,127
4,50,126,52,127,4,0,0,127,126
3,52,126,8,0,3,127,0,0,126
4,57,127,8,128,4,0,0,128,127
4,46,126,7,127,3,127,0,127,126
133,50,127,4,128,131,128,0,128,127
131,9,125,7,0,3,126,0,127,126
131,9,0,7,1,129,0,0,126,125
133,9,127,6,128,3,128,0,128,127
3,8,127,7,129,3,128,0,129,128
133,10,127,7,129,4,128,0,128,1
135,0,128,0,132,1,130,0,131,128
4,53,128,7,130,3,129,0,130,0
131,7,0,4,0,130,126,0,127,126
3,9,127,7,128,3,128,0,128,127
3,7,128,6,129,2,128,0,129,128
134,44,128,1,130,1,129,0,130,128
133,51,128,6,129,3,129,0,129,128
134,8,0,6,1,4,129,1,130,1
3,43,128,7,130,2,129,0,130,128
2,101,35,54,130,2,129,0,131,42
131,6,125,3,126,129,126,0,126,126
136,1,128,1,132,1,130,1,131,128
131,58,0,5,126,130,126,0,127,126
136,46,0,2,0,2,0,0,0,0
2,42,126,42,129,2,128,0,128,127
134,9,128,6,129,3,129,0,129,128
132,10,126,7,127,4,127,0,127,126
133,6,127,2,0,131,128,0,129,128
4,57,128,5,129,3,129,0,129,0
3,45,128,8,130,3,129,0,130,128
136,1,0,1,133,2,130,0,131,0
135,64,1,10,1,4,1,1,130,1
133,59,127,55,1,131,0,0,128,127
4,39,0,9,133,3,0,0,0,0
132,46,0,6,1,131,127,1,128,128
2,45,127,46,130,1,129,0,129,128
133,1,127,2,129,131,128,0,128,128
4,9,128,6,130,3,129,0,130,128
3,49,127,8,129,2,128,0,129,128
3,6,128,2,0,2,129,0,130,128
132,59,1,10,1,5,0,0,128,127
2,9,128,7,130,2,129,0,129,128
134,8,128,6,130,3,129,0,130,0
4,10,127,8,129,3,128,0,129,0
136,29,24,28,133,0,130,0,131,25
2,31,26,30,134,1,0,0,0,0
136,35,20,29,133,0,21,0,24,24
133,5,128,1,129,131,129,0,129,128
136,45,0,2,0,2,0,1,131,0
3,8,128,6,130,3,129,0,130,128
2,39,128,39,131,1,129,0,130,128
134,9,0,6,1,4,129,0,130,128
3,9,127,7,129,3,128,0,129,128
133,49,127,2,0,131,128,0,128,127
4,10,128,8,130,3,129,0,130,0
133,51,127,6,129,2,128,0,128,128
3,37,128,37,130,2,129,0,130,0
3,50,127,8,129,3,128,0,128,127
135,37,128,0,131,1,130,0,131,128
4,11,127,9,129,4,128,0,128,127
4,54,128,7,130,3,129,0,130,128
135,53,0,7,1,3,0,1,130,1
134,7,128,5,130,3,129,0,129,128
5,11,127,9,129,4,128,0,129,128
135,45,0,2,131,2,130,0,131,0
2,41,127,1,130,1,129,0,129,128
133,4,127,1,128,131,128,0,128,127
132,55,126,8,1,4,0,0,127,126
2,44,128,5,130,1,129,0,130,128
1,46,128,5,133,1,130,0,131,0
3,53,127,6,129,2,128,0,128,127
3,8,128,7,130,2,129,0,130,0
3,52,128,6,130,2,129,0,130,128
132,8,126,6,128,3,127,0,128,127
3,56,128,7,131,2,129,0,130,0
3,44,128,6,132,2,130,0,131,0
3,57,126,7,127,3,127,0,127,127
4,9,128,7,0,3,129,0,0,0
2,39,0,5,133,1,130,0,131,0
133,62,1,10,1,131,128,1,129,128
134,44,128,2,131,2,130,0,130,0
1,44,24,33,135,1,26,0,27,28
0,42,24,35,24,0,24,0,24,24
4,43,0,2,132,2,130,1,131,0
134,2,0,3,130,3,129,1,130,128
135,1,0,2,132,3,130,0,131,0
135,4,34,75,35,131,128,1,128,118
3,15,15,10,132,3,129,0,0,0
135,43,0,7,131,3,130,0,131,0
136,1,0,1,133,2,0,0,0,0
4,53,128,6,130,3,129,0,130,0
6,58,128,11,1,5,129,1,130,128
135,6,0,3,131,3,130,0,130,0
135,38,0,2,131,2,130,1,131,0
133,6,0,3,129,131,128,0,129,128
5,11,128,9,130,4,129,0,0,0
136,1,128,1,132,131,130,1,131,128
134,9,0,6,1,4,129,0,129,128
136,36,125,36,0,1,127,0,128,128
135,1,0,2,131,3,130,0,130,0
133,2,0,3,128,131,128,1,128,128
135,8,0,4,0,3,130,0,130,0
5,17,128,13,132,5,130,0,0,0
134,3,1,4,130,131,129,1,130,128
3,14,128,9,131,3,130,0,130,128
134,10,1,6,129,5,129,1,129,128
133,2,0,3,130,131,129,1,130,128
134,1,0,2,131,2,130,0,130,0
4,11,128,9,132,4,130,0,131,0
134,41,11,8,128,2,127,0,128,128
134,1,128,1,130,131,129,1,130,128
2,40,0,6,133,2,130,0,131,0
1,5,0,0,134,0,130,0,131,0
134,4,128,1,131,1,130,0,130,128
4,9,128,7,129,3,128,0,129,128
134,52,128,3,1,3,129,0,130,128
2,46,0,1,133,1,130,0,131,0
135,46,128,5,131,1,130,0,131,0
134,7,128,2,130,2,129,0,130,128
135,1,128,1,131,2,130,0,130,128
4,9,128,8,0,3,129,0,130,0
4,51,0,6,131,3,130,0,0,0
134,4,128,1,130,2,129,0,130,128
134,7,128,4,131,2,130,0,130,0
136,0,128,0,132,131,130,1,131,128
134,1,128,1,130,131,129,0,130,128
133,2,127,3,128,131,128,0,128,128
133,2,128,3,129,131,128,1,129,128
133,1,128,1,129,131,128,0,129,128
134,1,128,2,129,131,129,0,129,128
136,1,128,1,132,2,130,1,131,0
134,2,128,3,129,131,129,0,129,128
134,0,128,0,130,131,129,0,130,128
130,7,124,5,125,128,125,0,126,125
133,50,127,5,129,3,128,0,128,128
136,47,0,2,133,2,0,1,131,0
133,8,128,5,0,3,129,0,129,128
2,42,128,42,130,2,129,0,130,128
2,85,128,70,129,2,130,0,131,41
133,6,127,3,1,131,128,0,129,128
2,43,128,5,132,1,130,0,131,0
133,7,127,5,129,3,128,0,128,127
3,61,127,7,128,3,128,0,128,128
4,57,128,7,130,3,129,0,130,128
3,44,128,44,130,2,129,0,129,128
134,46,128,1,130,1,129,0,130,128
3,43,37,7,133,2,130,0,0,0
136,0,128,1,133,1,130,1,131,128
4,63,127,7,0,3,127,0,128,127
2,48,128,6,129,1,129,0,129,128
133,9,128,7,129,3,128,0,129,128
131,7,125,5,126,2,126,0,126,125
132,1,0,1,126,131,126,0,127,126
131,2,0,3,126,130,126,0,127,126
134,7,128,1,0,131,129,0,129,128
132,0,126,1,127,131,127,0,127,127
134,0,128,0,131,0,130,0,130,128
131,9,0,7,1,129,0,0,1,125
133,7,127,2,0,131,128,0,128,128
4,8,125,7,126,3,126,0,126,125
1,101,31,79,130,1,129,0,131,40
1,40,0,0,133,1,130,0,131,0
132,6,126,2,128,2,127,0,128,127
133,2,127,2,1,131,128,1,128,128
130,6,0,3,1,128,125,0,126,125
132,6,126,2,0,131,127,0,128,127
133,6,127,2,0,131,128,0,129,128
130,7,124,4,0,129,125,0,126,125
133,5,127,1,129,131,128,0,128,128
3,44,128,6,130,2,129,0,129,128
133,7,127,2,0,131,128,0,128,128
136,0,128,0,133,131,130,1,131,128
133,7,127,2,0,2,127,0,128,127
132,6,126,2,0,130,127,0,127,126
132,8,0,6,0,3,127,0,128,0
132,0,126,1,127,130,127,0,127,126
130,2,0,3,1,129,125,0,126,125
133,6,127,2,0,131,128,0,128,127
131,7,0,3,0,130,126,0,127,126
132,5,126,1,127,130,127,0,127,127
133,2,127,2,129,131,128,0,129,128
136,28,23,0,134,0,130,0,131,25
133,0,128,0,129,131,129,0,129,128
134,1,128,2,130,131,129,1,130,128
134,0,128,1,130,131,129,0,130,128
135,0,128,0,131,1,130,0,131,0
133,2,0,3,129,131,129,0,129,128
133,1,128,1,129,131,129,0,129,128
134,1,128,2,130,131,129,0,130,128
134,2,128,3,130,131,129,0,130,128
133,2,128,2,129,131,129,0,129,128
136,1,0,2,133,2,0,0,131,0
134,1,128,1,130,131,129,0,130,128
135,1,0,1,132,2,130,0,131,0
135,2,0,3,132,3,130,1,131,0
134,0,128,0,131,131,130,0,130,128
135,4,128,4,129,131,129,1,130,128
136,0,0,0,132,2,130,0,131,0
135,7,0,2,131,3,130,0,131,0
133,1,127,1,128,131,128,1,128,128
133,1,127,3,129,131,128,0,129,128
135,3,1,3,132,5,130,1,131,2
136,0,128,0,130,131,129,1,130,128
135,0,128,0,130,131,130,0,130,128
3,108,64,105,135,4,42,0,42,42
135,0,128,0,132,1,130,0,131,128
135,2,0,3,132,4,130,0,131,0
135,1,0,2,131,2,130,0,131,0
4,103,39,89,134,4,39,0,0,39
136,1,0,1,133,3,130,1,131,0
135,1,0,2,132,3,130,1,131,0
136,2,0,3,133,4,130,1,131,1
136,2,0,2,133,4,130,1,131,1
135,1,128,1,131,131,130,0,131,128
135,1,0,2,131,131,130,0,130,128
135,4,2,4,131,131,130,1,130,128
4,105,36,102,135,3,38,0,0,38
136,1,128,2,133,131,130,1,131,128
135,1,128,1,131,131,130,1,131,128
4,42,40,9,135,4,0,0,0,0
136,1,0,1,133,3,130,1,131,0
4,107,71,104,135,6,23,0,24,45
136,2,0,3,133,4,130,1,131,1
136,2,0,2,135,3,0,0,1,0
136,2,0,3,133,4,130,1,131,1
136,9,1,6,133,6,130,0,2,2
3,111,98,107,98,3,24,0,24,39
135,3,2,4,132,131,130,1,131,2
135,2,128,3,131,131,130,1,130,128
136,1,128,1,132,131,130,1,131,128
136,2,0,3,134,3,0,0,1,0
134,1,128,1,129,131,129,0,129,128
4,10,127,9,129,3,128,0,128,127
133,3,0,3,129,131,128,0,129,128
135,3,1,4,131,5,130,1,131,1
136,1,128,1,132,131,130,1,131,128
134,1,128,1,129,131,129,0,130,128
135,122,128,124,130,131,130,1,130,128
132,0,127,1,128,131,127,0,128,127
133,1,128,2,129,131,129,0,129,128
134,1,128,2,130,2,129,0,130,0
4,42,0,8,0,3,130,0,0,0
133,2,128,3,129,131,128,1,129,128
133,9,0,4,129,131,128,0,129,1
134,8,0,4,129,131,129,0,129,128
136,1,128,1,132,1,130,1,131,128
130,9,1,5,2,128,1,0,125,125
133,2,0,3,127,131,127,1,128,128
135,8,0,3,1,4,130,0,131,0
135,0,128,1,131,1,130,0,131,128
136,2,0,3,133,3,0,0,1,0
4,10,126,8,0,4,127,0,128,0
131,60,1,8,2,130,1,1,127,126
134,99,25,82,128,4,129,0,129,39
135,100,34,55,129,2,129,0,130,0
5,11,126,9,127,4,127,0,127,126
4,11,128,9,129,3,128,0,0,0
133,1,128,2,129,131,128,0,129,128
4,10,0,8,0,3,130,0,0,0
5,10,127,8,1,4,0,0,1,1
134,9,0,4,1,4,0,0,129,128
5,10,128,9,130,4,0,0,1,0
133,2,127,2,129,131,128,1,129,128
133,9,0,7,129,4,128,0,129,0
4,46,0,44,0,3,0,0,0,0
136,101,34,52,132,2,130,0,131,38
135,123,128,125,131,131,130,1,131,128
134,6,128,4,130,1,129,0,130,128
123,2,111,2,113,123,112,0,113,112
134,2,128,2,130,2,129,0,130,128
131,7,0,3,2,130,126,0,127,126
135,7,128,3,0,3,129,0,130,0
134,44,128,6,130,3,129,1,130,128
131,9,125,7,1,4,126,0,127,126
3,103,28,84,133,3,130,0,131,39
132,8,126,3,1,131,0,0,128,127
134,6,128,2,129,1,129,0,130,128
134,7,1,4,2,131,128,1,129,128
136,1,0,1,132,1,130,1,131,0
134,6,128,2,130,3,129,1,130,128
3,42,0,2,133,2,0,0,0,0
136,41,0,2,132,2,130,0,131,0
5,10,128,9,0,4,0,0,1,0
134,8,0,4,2,4,129,0,130,1
133,2,0,3,129,131,128,0,129,128
136,2,0,2,132,3,130,1,131,0
125,0,113,1,115,125,114,1,115,114
133,8,0,4,1,131,0,0,128,127
5,9,128,7,1,4,0,0,130,128
133,9,1,7,2,131,1,1,129,128
3,41,128,7,131,2,130,0,0,0
126,1,114,2,116,126,115,1,116,115
5,10,128,9,0,4,129,0,130,0
133,6,127,2,0,131,128,0,129,128
132,10,1,8,2,130,1,0,2,127
135,2,128,3,130,131,129,1,130,128
133,10,1,8,1,131,0,0,128,128
133,8,128,5,0,3,129,0,129,128
134,8,0,5,130,3,129,0,130,0
132,8,0,6,1,130,0,0,128,127
133,10,127,8,129,4,128,0,1,1
5,9,126,8,0,4,127,0,127,0
132,5,126,2,0,130,126,0,127,126
4,52,128,8,130,4,129,0,130,1
133,8,1,6,128,131,128,0,128,128
133,2,128,2,130,131,129,1,129,128
5,51,128,9,130,4,0,0,1,0
131,117,1,9,2,130,1,1,127,126
5,56,128,8,130,4,129,0,130,0
135,7,128,5,131,2,130,0,130,0
135,99,24,78,127,3,128,0,129,0
132,9,126,6,128,4,1,0,128,127
135,7,128,6,0,3,129,0,130,128
133,7,128,5,0,3,128,0,129,128
133,53,127,8,1,4,128,0,128,128
4,9,128,7,129,4,0,0,129,128
135,8,0,6,1,4,0,0,130,1
135,4,128,1,131,1,130,0,130,128
134,2,128,2,130,3,129,0,130,128
134,49,128,2,130,3,129,0,130,128
134,53,0,6,1,3,129,0,130,1
135,102,34,53,0,3,130,0,130,0
135,51,0,3,131,3,130,0,131,0
4,52,128,9,130,4,129,0,130,1
5,60,127,10,1,5,1,0,129,128
133,9,127,7,1,4,128,0,129,128
134,51,128,6,1,3,129,1,130,128
132,49,127,3,1,131,128,0,128,128
4,57,128,8,129,4,129,0,129,128
136,45,0,3,1,3,0,1,131,0
134,48,128,7,130,3,129,0,130,0
133,8,127,6,1,3,0,0,128,127
133,7,127,5,0,131,0,0,129,128
134,7,128,5,130,2,129,0,130,128
133,94,37,52,126,131,125,0,126,0
132,46,127,2,0,131,128,0,128,128
5,9,127,8,1,4,0,0,129,128
135,7,0,5,131,3,130,0,130,0
135,7,0,4,0,3,130,0,130,0
135,100,21,82,128,2,129,0,130,41
135,7,128,2,131,2,130,0,130,0
136,0,0,1,131,1,130,0,131,128
136,1,0,1,133,1,130,0,131,0
5,55,126,9,1,4,1,0,127,126
134,8,128,6,129,3,129,0,129,128
135,7,0,3,0,3,130,0,130,0
133,47,0,3,1,3,0,0,129,128
136,7,0,2,0,2,0,0,0,0
133,6,128,4,129,2,129,0,129,128
2,41,0,1,133,1,130,0,0,0
133,9,127,4,1,4,1,0,129,128
130,10,125,8,1,4,0,1,126,125
135,101,29,83,129,3,129,0,130,0
4,8,127,7,129,3,128,0,129,128
5,52,128,8,130,4,129,0,130,0
133,49,127,8,1,4,128,0,128,128
133,50,127,7,129,4,128,0,129,128
132,7,126,5,127,2,127,0,127,127
134,7,128,5,130,3,129,0,130,128
133,8,128,6,129,3,129,0,129,128
5,10,0,8,0,4,0,0,0,0
135,3,128,3,132,131,130,1,131,128
3,102,26,99,133,3,130,0,0,38
134,0,128,1,130,131,129,0,130,128
134,3,0,3,129,131,129,0,130,128
135,2,0,3,131,4,130,0,131,0
133,1,128,2,129,131,128,0,129,128
134,0,128,0,129,131,129,0,130,128
2,105,75,90,135,2,39,0,40,39
132,2,0,3,128,131,127,0,128,127
134,3,0,3,129,131,129,0,130,128
135,0,0,1,131,2,130,0,131,0
136,1,0,1,132,2,130,0,131,0
134,1,0,2,130,131,129,0,130,128
135,2,0,3,132,3,130,0,131,0
2,107,79,103,135,3,30,0,45,44
135,2,0,3,130,4,130,0,130,0
3,106,71,102,135,3,40,0,41,40
134,1,128,2,129,131,129,0,130,128
2,107,25,104,132,3,130,0,36,38
136,1,0,1,132,2,130,0,131,0
135,1,128,2,130,131,129,0,130,128
3,107,81,104,135,4,36,0,37,38
133,3,126,3,127,131,127,0,128,127
3,94,36,54,134,3,0,0,0,0
3,103,37,55,133,2,0,0,0,0
134,1,128,2,0,3,129,0,130,128
131,43,0,1,125,131,125,1,126,126
133,9,127,6,0,3,128,0,129,128
132,6,127,3,129,2,128,0,128,127
133,1,128,1,130,2,129,0,129,128
133,7,127,2,129,131,128,0,129,128
135,1,0,2,130,3,130,0,130,0
133,2,0,3,129,131,128,0,129,128
133,3,1,3,129,131,129,1,129,128
132,0,127,1,129,131,128,0,128,128
134,6,128,2,131,1,130,0,130,0
133,2,0,2,129,131,128,0,129,128
134,6,128,2,130,1,129,0,130,128
135,2,0,3,131,3,130,1,130,128
134,3,0,4,129,131,129,1,129,128
134,1,128,1,131,1,130,0,130,128
131,1,126,2,127,130,126,0,127,126
