0,1,2,3,4,5,6,7,8,9
0.3414106,0.662786,0.3733369,0.59523344,0.16242087,0.5356703,0.26773712,8.787406,0.3326285,0.42483556
0.3047352,0.038073417,0.6567802,0.25295043,0.5077033,0.66634744,1.0025992,7.0909524,0.9601072,0.92883646
0.13756105,0.08663106,0.6958006,0.26243925,0.53845155,0.39908612,1.0346125,7.3893957,0.81620544,0.93904114
0.12648502,0.20440972,0.4798913,0.0960736,0.42557877,0.38875782,0.8310758,6.626485,0.7444802,0.69207627
0.22476162,0.1453373,0.5596093,0.06022905,0.24539132,0.4964708,0.59492797,6.4037056,0.5391671,0.7044487
0.17504852,0.087228954,0.6960529,0.26620734,0.54716897,0.5741173,1.035633,7.314053,0.9754343,0.94154984
0.1590263,0.12121773,0.7687244,0.35698268,0.57809055,0.4869196,1.1007534,7.4977155,0.99837846,1.0255431
0.11417689,0.15759613,0.8046217,0.3210348,0.59815073,0.3093324,1.1375663,7.1321187,0.9177862,0.9856487
0.09635523,0.26443934,0.6239348,0.48671257,0.2760923,0.26083884,0.5369136,7.814858,0.31424227,0.34693852
0.14881466,0.6075657,0.4281021,0.4350098,0.1905267,0.49969488,0.2844434,8.610002,0.2426156,0.32906896
0.19963191,0.18947326,0.837226,0.4552468,0.37092602,0.66540056,1.0323567,8.125952,0.83186233,1.1092559
0.13926354,0.13449645,0.79004633,0.37966558,0.52983433,0.47177517,1.0832993,7.4473543,0.8408826,1.0454022
0.11670327,0.18856382,0.8386716,0.41119516,0.36436155,0.35977897,0.8907128,6.917813,0.74228483,0.9010594
0.224481,0.08203125,0.6964844,0.26340726,0.5453669,0.41571617,1.0341463,7.038845,0.88705593,0.94166744
0.13809064,0.16877164,0.8357535,0.28300226,0.42290485,0.36452514,1.1123934,7.049998,0.842944,0.9499584
0.25821143,0.16103956,0.8091491,0.40504572,0.57435936,0.54408157,1.1376715,7.3949456,0.92865366,1.0783765
0.10097306,0.13514017,0.78363466,0.37137407,0.5054594,0.4254836,0.9644768,7.2031894,0.72838145,0.9245175
0.2894962,0.4557681,0.67889744,0.5870562,0.20092581,0.5964788,0.34338048,7.944384,0.20177776,0.9256074
0.2296036,0.56074464,0.31737342,0.35394666,0.08222865,0.75744504,0.17246492,9.084305,0.15759008,0.5812401
0.17494752,0.5734769,0.33272776,0.3505346,0.11705009,0.50907624,0.26093778,9.066135,0.2144789,0.49077755
0.3146495,0.1364971,0.53183424,0.048030596,0.2533074,0.56982553,0.4840786,6.6207027,0.5160262,0.678955
0.24504791,0.09917761,0.6731746,0.23745184,0.53313446,0.49518824,1.0131646,7.1235914,0.8285491,0.912941
0.0947681,0.10304239,0.43494186,0.16368423,0.30227527,0.6375165,0.509367,5.1567364,0.34211898,0.40771866
0.26824793,0.13424893,0.6153134,0.16006988,0.24661732,0.50683486,0.7038362,6.718069,0.5816645,0.8260372
0.190417,0.49241513,0.58416665,0.37778142,0.12063314,0.86512864,0.12644787,9.4344225,0.29443482,0.71553046
0.024985101,0.35793048,0.43776476,0.38064834,0.13702358,0.27134645,0.26287404,8.135278,0.2987627,0.5459037
0.015674038,0.16100699,0.7564736,0.1751181,0.19607274,0.3367561,0.46305954,7.0982776,0.28845233,0.81687057
0.18858717,0.16458917,0.8090692,0.4082297,0.60086334,0.43012777,1.1342046,7.4878893,0.8997397,1.0641192
0.20787507,0.36317295,0.9871393,0.6203759,0.6894524,0.66842246,1.2829978,8.133907,1.1698481,1.2783096
0.14997824,0.72797054,0.4614741,0.67009926,0.12710984,0.24437512,0.24227756,9.10019,0.19404925,0.33558708
0.1444147,0.11392137,0.7558846,0.33785218,0.57823014,0.37859172,1.0938846,7.054422,0.8527697,0.99196154
0.1164774,0.12348593,0.6320231,0.18018703,0.3042725,0.35608152,0.6121962,6.043025,0.36442435,0.583717
0.11685697,0.14778072,0.7954909,0.3641822,0.41528314,0.28890517,1.0902659,6.6520853,0.7727328,0.9219104
0.06911202,0.10573967,0.8271087,0.21087363,0.43779486,0.32050693,0.73024875,7.510959,0.4617459,0.6323284
0.14145324,0.46157792,0.5035589,0.36246753,0.19556929,0.94626504,0.3022031,8.879453,0.21053927,0.67326796
0.22133176,0.6541578,0.42310578,0.44818488,0.14697509,0.5155418,0.24390516,8.8847685,0.21430263,0.4027897
0.11429192,0.17453305,0.32495475,0.36931077,0.07434393,0.4425748,0.4438267,6.5592747,0.26697534,0.5003208
0.058154657,0.1295078,0.775612,0.3635089,0.57505584,0.35303283,0.9878763,7.026074,0.72043633,0.880384
0.02861907,0.50962484,0.79289055,0.740783,0.10709734,0.92082244,0.3825929,8.991244,0.24982446,0.8393183
0.23103325,0.15715982,0.551769,0.08026993,0.21668082,0.5201339,0.572638,6.7395477,0.5222024,0.7332349
0.23550084,0.109712355,0.7604287,0.34235585,0.56338793,0.4779465,1.088955,7.4162054,0.8528801,0.9891032
0.20984873,0.24050218,0.6117332,0.37743226,0.3281715,0.9347176,0.5963901,7.93584,0.36248314,0.60166234
0.13847089,0.11127457,0.5745722,0.12764609,0.4807033,0.4396985,0.8076008,5.1044884,0.52867377,0.6143184
0.22424234,0.091622695,0.67884356,0.24720296,0.5404561,0.4702632,1.0188333,7.117263,0.80789757,0.92267054
0.23970827,0.12403209,0.5870473,0.12614395,0.5023123,0.46601018,0.93459684,6.8864717,0.78233755,0.78999454
0.17518626,0.5577651,0.39248368,0.6235271,0.10014409,0.4763487,0.30256736,8.344655,0.2198109,0.30092588
0.202123,0.11864531,0.588852,0.11795707,0.5061806,0.395413,0.8957432,6.477213,0.6091567,0.7264798
0.21659137,0.12094008,0.55469674,0.08943148,0.21709524,0.39506096,0.33770007,6.280879,0.40236598,0.603517
0.13818254,0.271924,0.5281233,0.48275164,0.2893362,0.828253,0.52164483,8.743364,0.2743039,0.456427
0.20020205,0.09168252,0.7414335,0.31600624,0.56863636,0.5653344,1.0794758,7.2266626,1.0219662,0.9922606
0.13639332,0.41635075,1.0493926,0.5740018,0.5569746,0.45791128,1.3393521,7.954506,1.0941732,1.2177104
0.1651141,0.505845,0.36660558,0.30810353,0.16117571,0.49040362,0.21404102,9.1951,0.21858482,0.34112832
0.28424656,0.15598886,0.5819446,0.08939949,0.2317418,0.50908864,0.3600527,6.8240676,0.4914829,0.6926968
0.15705554,0.13266522,0.77618414,0.3708444,0.5774499,0.5988582,1.1013077,7.5137205,1.0600684,1.0439595
0.1502951,0.123671144,0.76313,0.35067466,0.5704707,0.37541744,1.090576,7.0197797,0.899007,1.012951
0.27071738,0.2430611,0.8887813,0.50203764,0.5205378,0.57011783,1.1471596,7.7553124,0.8909887,1.0646199
0.123028725,0.28802884,0.46470627,0.48491982,0.18201236,0.40262258,0.26709834,9.514223,0.21684279,0.33696502
0.13538218,0.107188575,0.6958955,0.1767423,0.54557383,0.36086547,1.0310911,6.952672,0.779902,0.87621653
0.1893955,0.45271388,0.9888408,0.710747,0.49662367,0.45530388,0.9470533,7.64538,0.67471045,0.9015894
0.23087126,0.08845306,0.6683281,0.23281954,0.3900151,0.43892574,0.8424953,7.1089892,0.60940367,0.7775516
0.31665847,0.53166497,0.71534956,0.45503384,0.07761368,0.9743256,0.19833237,8.467406,0.3999387,0.9398279
0.11720264,0.087572664,0.722745,0.29946613,0.5412018,0.48288977,1.0489492,7.0700984,1.0099032,0.9868668
0.19012909,0.1000369,0.5975932,0.17138393,0.29862422,0.4734715,0.602284,5.1008534,0.3600418,0.7182632
0.16357931,0.09905252,0.671288,0.22329566,0.53512996,0.4087322,1.0134455,7.0259886,0.76092994,0.8857684
0.25549683,0.07458086,0.7266934,0.31032568,0.39497367,0.56854635,0.9370242,7.2681084,0.72331166,0.90449244
0.063833706,0.20813672,0.62030536,0.17697889,0.38793138,0.30626887,0.86811435,6.948635,0.79777807,0.78807205
0.07716898,0.20058377,0.6276798,0.29963288,0.36110553,0.6551186,0.6224943,7.518172,0.3408189,0.5101151
0.12978971,0.30500424,0.95247066,0.4071806,0.5285324,0.36119282,1.1306783,7.2903967,0.8287548,0.9640741
0.18252905,0.13069712,0.5857179,0.14140612,0.47369397,0.45042664,0.84291613,4.795563,0.611788,0.6112391
0.0792799,0.12081385,0.76903725,0.35678595,0.5839807,0.33432162,1.101945,7.2206006,0.88514924,1.0339148
0.2523684,0.07279813,0.61865485,0.22857404,0.46934244,0.66233927,0.968094,8.011575,0.9325741,0.90025175
0.1438636,0.21006538,0.8595964,0.40184626,0.5208555,0.3926925,0.94090044,7.3116713,0.67284286,0.84153163
0.008564973,0.09895619,0.5932957,0.14794277,0.3625905,0.38425568,0.6149892,5.4408746,0.3514487,0.739967
0.32380164,0.08536407,0.68090886,0.2430292,0.5283228,0.6087661,1.0194573,7.1321893,0.9510399,0.9205503
0.30952808,0.07838093,0.6758486,0.25795117,0.16113356,0.6872105,0.55063516,7.6529365,0.47204348,0.77056366
0.13254902,0.1568394,0.44459182,0.3637292,0.15966722,0.3350125,0.36175677,6.6363673,0.3190805,0.29012042
0.24663709,0.18483365,0.8357096,0.43872255,0.52974284,0.5118878,1.1549838,7.4157,0.90186757,1.0592992
0.3052026,0.11990064,0.44155934,0.09580521,0.24592997,0.5898981,0.456709,5.255246,0.5393656,0.62118566
0.42429727,0.53186,0.70791906,0.4925186,0.19571127,0.6904358,0.7967064,8.5215,0.59766024,0.75084084
0.20432852,0.042924337,0.6685781,0.2575474,0.30239278,0.46517745,0.73777586,6.8219485,0.61442685,0.8420575
0.39273515,0.32374483,0.43329507,0.22836272,0.22994885,1.0176718,0.66971433,8.670482,0.5664696,0.7274558
0.2624052,0.21658123,0.86616087,0.47188437,0.6109092,0.5408238,1.185725,7.3281975,0.9196738,1.0640881
0.22379509,0.13166764,0.54120684,0.08452062,0.24514782,0.43358523,0.6704594,6.520053,0.5006376,0.6710127
0.22658467,0.16869676,0.81784326,0.41913593,0.39672244,0.5366923,0.925407,7.5619345,0.71842355,0.9200818
0.22111118,0.080960505,0.7229726,0.29718605,0.44963148,0.5361115,0.98467183,6.915357,0.74365395,0.91818535
0.28773233,0.13739717,0.5798878,0.10390069,0.38460883,0.5998147,0.91340524,6.7145743,0.780117,0.7762129
0.1957399,0.14680953,0.80150384,0.39896673,0.5926274,0.53108317,1.1301714,7.420507,1.0041724,1.0622023
0.08428896,0.05793082,0.7129602,0.30954528,0.54209006,0.46700165,1.0370078,7.1321206,1.0177863,0.99160147
0.1839927,0.10059779,0.71590227,0.2918133,0.55663335,0.52726424,1.0552472,7.2985525,0.9823996,0.96814144
0.24988368,0.6208219,0.5320021,0.63775533,0.14641926,0.5180603,0.2453515,8.632808,0.21647607,0.647572
0.24045005,0.100265436,0.6539975,0.21190675,0.47370744,0.5306948,0.9972435,6.7496514,0.766826,0.8897559
0.26510137,0.332717,0.6181733,0.5246529,0.26243243,1.181726,0.44696808,8.978744,0.26358235,0.7800937
0.34254217,0.119018495,0.51000434,0.065726,0.24465376,0.6204129,0.4382378,6.2898345,0.61849123,0.64134306
0.15049507,0.24315229,0.8861001,0.4120596,0.40433815,0.38620088,0.9530722,7.2141676,0.9042169,1.0359327
0.17790602,0.0759399,0.6838037,0.24991082,0.5413057,0.45152172,1.0259283,7.0793633,0.9358533,0.92970186
0.03200579,0.10362382,0.74408007,0.2557219,0.5286571,0.26404014,0.9369028,6.520874,0.63704264,0.7784633
0.18666768,0.38389093,0.54451877,0.361649,0.09312869,1.0327743,0.21373783,9.523047,0.33282697,0.8431933
0.1748515,0.093245104,0.6824415,0.24142139,0.5355377,0.46667564,1.021579,7.130099,0.9317374,0.9216863
0.21631818,0.52611643,0.38977906,0.34707695,0.09770141,0.8471552,0.16850656,8.54253,0.2986753,0.52832615
0.15787634,0.75107354,0.41720998,0.5358716,0.09657606,0.5251628,0.24242955,9.177182,0.22956334,0.3963698
0.26009265,0.1323062,0.5669252,0.08017334,0.35827234,0.56556565,0.5856782,6.3671193,0.62646884,0.75044554
0.13401707,0.19424759,0.5395307,0.34052673,0.24511768,0.32754222,0.44501525,9.261613,0.2719058,0.31434697
0.17178316,0.51887506,1.1436199,0.77903646,0.72824657,0.68186,1.4247056,8.513033,1.1572939,1.3541996
0.14136511,0.6139103,0.38693354,0.5268783,0.14206299,0.46584314,0.36744747,8.594958,0.2460608,0.33879822
0.1982289,0.09351829,0.66914666,0.22825882,0.4585724,0.4967195,0.9468662,7.020048,0.7155443,0.8598651
0.19759735,0.11503973,0.7529271,0.32935175,0.55134565,0.45549747,1.0789862,7.2992287,0.8308491,0.98280656
0.27739403,0.10370661,0.644777,0.19166455,0.29272696,0.5522227,0.65960056,6.8409486,0.62325424,0.86820114
0.30966464,0.38086876,0.89090484,0.64015555,0.205156,0.694587,0.8071825,8.020692,0.6725556,0.97100246
0.14779869,0.15711583,0.8128001,0.27199632,0.49342456,0.33769843,1.0845071,6.933623,0.87530583,0.96958363
0.13448195,0.13590719,0.7831331,0.367451,0.3742471,0.35538822,0.776168,7.193228,0.5899072,0.77972746
0.15877594,0.10620538,0.7155573,0.25065193,0.34479365,0.38921505,1.022085,6.277536,0.7306795,0.8604456
0.13404024,0.121532016,0.76363504,0.34765694,0.5794187,0.3356106,1.0995018,7.0145564,0.8810029,0.98985106
0.25532627,0.5623457,0.29500878,0.36495554,0.1811247,0.54983485,0.31620574,8.401056,0.20103258,0.38788837
0.23424688,0.13655996,0.7841393,0.37917262,0.5833988,0.5223478,1.1134282,7.5514913,0.96806735,1.0459944
0.13466921,0.16492346,0.8136571,0.41515422,0.27407935,0.46409443,0.65232366,7.47234,0.57403123,0.8281948
0.20334971,0.14377458,0.86082375,0.18727225,0.5257048,0.39887688,1.1038414,7.4395943,0.83458424,0.9239445
0.10352365,0.18468137,0.83864033,0.4170448,0.30375803,0.29175967,1.1343691,7.1466823,0.8190656,0.95996183
0.16453041,0.25902113,0.9048978,0.51238227,0.5731274,0.58713806,1.2164053,7.7883844,1.1904601,1.1832591
0.25552848,0.10715966,0.66829616,0.21228613,0.29549086,0.47884506,0.78875893,7.120283,0.60384315,0.8476713
0.2661037,0.08510954,0.6912574,0.25853327,0.41205716,0.6035822,0.98385775,7.291756,0.779815,0.9396701
0.10393731,0.26458898,0.5964391,0.4400438,0.27796543,0.8297256,0.5457591,8.512188,0.3210411,0.51268345
0.2114579,0.48072076,0.47565612,0.48600814,0.1697485,0.46269625,0.26799214,8.587275,0.30141747,0.36792892
0.052674767,0.22184204,0.41742706,0.2504269,0.1861005,0.29491007,0.3159689,7.569336,0.28712016,0.511677
0.09652958,0.17991425,0.8832194,0.30334136,0.46070313,0.2861336,1.1235974,6.888642,0.811655,0.92923355
0.25027427,0.09658346,0.6849517,0.25350168,0.54439855,0.5569757,1.0277619,7.142086,0.9644064,0.9295652
0.087321214,0.22231333,0.8674066,0.47878858,0.6343437,0.37968272,1.1873751,7.442214,0.981635,1.1222839
0.31516725,0.16475423,0.53654045,0.055078473,0.255344,0.51650983,0.7547994,6.8326225,0.58061814,0.7161643
0.17674585,0.29009742,0.5566963,0.4371552,0.31188524,0.8785926,0.5107996,8.172336,0.29030097,0.5118562
0.21979624,0.13679197,0.7764922,0.35929406,0.55749553,0.48837006,1.1006866,7.031816,0.8592865,0.98748106
0.15385513,0.12241747,0.5821636,0.16142994,0.4658789,0.40441278,0.833977,5.8996644,0.5705663,0.73941016
0.19810171,0.35267633,0.5398929,0.5893096,0.2864139,0.9652261,0.50908864,8.602759,0.3123615,0.58798736
0.18174909,0.3883902,0.38969985,0.45302343,0.04439065,0.40098235,0.23613788,7.9927487,0.13833535,0.35487333
0.18719158,0.13261129,0.786627,0.37707138,0.48050448,0.51461285,1.0295308,7.319292,0.77172136,0.9760784
0.18462315,0.097039066,0.71222246,0.2845779,0.54901206,0.40633523,1.0465003,7.286421,0.88795775,0.9617733
0.2657071,0.3130176,0.7304573,0.50493854,0.30317625,1.3161949,0.6464106,8.351624,0.40530255,0.9661002
0.08984422,0.117032774,0.5835198,0.16685793,0.49879643,0.32814342,0.87624013,5.8504405,0.70432556,0.68016297
0.1452072,0.22845928,0.89248276,0.35238212,0.45800078,0.36523396,0.95253104,7.269055,0.6603878,0.82715976
0.2400199,0.29226762,0.44713715,0.28776672,0.15058866,0.7173902,0.16632195,9.457632,0.23082538,0.46711496
0.060556866,0.60614884,0.41008708,0.65555644,0.1435688,0.23282672,0.2626236,8.996569,0.19888698,0.40955475
0.097387515,0.5974532,0.37448213,0.6069312,0.18515198,0.26911262,0.29848126,8.427362,0.23081246,0.41194013
0.14164275,0.66546375,0.42728263,0.49078616,0.14264081,0.4674792,0.3324539,9.197962,0.2511328,0.28604448
0.29062402,0.10078958,0.72207505,0.30232537,0.5365668,0.53987724,1.05724,6.9101205,0.8465019,0.9785551
0.17354588,0.5698445,0.47705203,0.70718914,0.2772913,0.42493573,0.46304435,8.85713,0.27078155,0.1931231
0.045913678,0.1360124,0.5467453,0.14526182,0.26089394,0.5192031,0.5248149,6.489756,0.28181866,0.4215867
0.18275969,0.20414712,0.85383904,0.4570928,0.61117774,0.58581454,1.168143,7.3899093,1.0591938,1.1264291
0.1616377,0.56346685,0.47914225,0.5903921,0.20970812,0.50952774,0.38748372,8.515191,0.2499814,0.2500472
0.136785,0.14075379,0.80393815,0.29761574,0.46348,0.3563308,1.1315818,6.961882,0.8828081,0.9771926
0.22153893,0.54861563,0.4380166,0.39294145,0.19162162,0.68276334,0.2550371,9.132741,0.21480213,0.37781453
0.15371966,0.21383932,0.8570678,0.4787672,0.4772419,0.6237012,1.1261622,7.895042,0.8657944,1.1428062
0.13645916,0.39805496,0.7467503,0.51621306,0.07609202,0.40284434,0.51215047,8.24442,0.5487942,0.7764341
0.048800766,0.13361698,0.59745777,0.1301368,0.3196557,0.43791425,0.49996996,4.754166,0.26003212,0.6252309
0.26483446,0.65398526,0.759779,0.5058509,0.17325386,0.70296,0.737702,8.925653,0.6442029,0.82906
0.06908186,0.23807605,0.8729649,0.4509837,0.62594855,0.40192324,1.19638,7.420289,1.0601695,1.1557305
0.34484318,0.64236253,0.7369036,0.5748447,0.16102995,0.68656045,0.3485268,8.83151,0.46178734,0.97093385
0.07766441,0.10152728,0.7449786,0.32162172,0.5698142,0.34175083,1.0814588,7.051652,0.9415358,0.99797183
0.1432362,0.11882001,0.5062542,0.10477701,0.43005994,0.37474284,0.85152733,6.111428,0.73472345,0.74434644
0.19163358,0.40528932,0.5411152,0.34686497,0.09019468,1.0049971,0.2118488,9.366703,0.3309092,0.7982471
0.17406985,0.41362524,0.49339584,0.3884255,0.1203591,0.62852633,0.24904977,9.247843,0.2439682,0.43395156
0.18603612,0.1278402,0.44003406,0.13289684,0.40387973,0.4679869,0.7875798,6.9522276,0.74474835,0.68895084
0.2838468,0.44540218,0.4732234,0.32750642,0.1513798,0.949517,0.22865382,8.75523,0.22862202,0.6535356
0.13708596,0.15211509,0.54841787,0.31585154,0.08316134,0.38007057,0.18996902,7.0394545,0.29286903,0.48914352
0.24628046,0.40885267,1.0458882,0.60456216,0.16295432,1.482588,0.6608691,9.02232,0.5415532,1.3208883
0.09826597,0.15035099,0.792486,0.3838279,0.579244,0.45976618,1.1164006,7.6986084,1.0470246,1.0579205
0.16902201,0.10159536,0.73685443,0.33227816,0.36772993,0.43686998,0.7684819,7.3326783,0.6535159,0.87023926
0.28350863,0.08588199,0.6805653,0.24793488,0.34645817,0.50843173,0.78869015,7.2320876,0.6829393,0.8816104
0.12174686,0.18291461,0.6928988,0.31149513,0.28022537,0.33705017,0.7438022,6.7223067,0.6977465,0.84642804
0.2195192,0.084168695,0.59742904,0.118288085,0.19292672,0.47579113,0.5673202,6.6030006,0.4748768,0.7313969
0.20212299,0.11195598,0.7524967,0.33294266,0.57140756,0.42256507,1.0892473,7.297268,0.8834791,1.0097178
0.19988205,0.2954618,0.42874652,0.3776801,0.1532161,0.53798366,0.19350605,9.3698015,0.27109286,0.38005632
0.19472289,0.13221157,0.77719927,0.37255412,0.51042837,0.45859694,1.0421593,7.2384033,0.7765516,0.9610227
0.119205825,0.19774607,0.84048676,0.3815811,0.5727966,0.3499217,1.090225,7.0749993,0.79744077,0.9277894
0.12366873,0.35268104,0.38575023,0.47723517,0.2619077,0.44267738,0.5590581,7.9984274,0.4633519,0.68555254
0.2895569,0.5196533,0.43093193,0.45450002,0.1693062,0.7040232,0.27825606,8.3747225,0.2137384,0.60377944
0.21900927,0.5627803,0.45395243,0.41798887,0.08236337,0.68688387,0.12851447,9.044685,0.2037438,0.52001977
0.22477631,0.10161648,0.743833,0.32256585,0.5663869,0.49166527,1.0786017,7.2529283,0.93412936,0.9991978
0.22400375,0.1470886,0.80041736,0.39342988,0.5922958,0.51688784,1.1320236,7.537086,0.9435867,1.0671089
0.034737747,0.1815763,0.83614314,0.30762455,0.48134974,0.24155459,1.006738,6.7110496,0.711984,0.8299297
0.25015587,0.41523117,0.4753633,0.32154757,0.15202415,0.9401933,0.2477415,8.762539,0.17487833,0.652269
0.34819642,0.214475,0.8521693,0.473512,0.31210685,0.76305324,0.9636839,7.857178,0.8058579,1.1225994
0.075679,0.109189555,0.77170193,0.15064406,0.4715945,0.33318463,1.0393468,7.34077,0.8531796,0.92614746
0.28673372,0.5683703,0.48142898,0.5178924,0.12236098,0.6569244,0.25336763,8.533146,0.34615007,0.5513208
0.21992883,0.117093876,0.66911584,0.2494343,0.1495305,0.48907882,0.5477821,7.028135,0.4353265,0.6600407
0.26990676,0.12368175,0.5392111,0.1729219,0.3886222,0.659594,0.8877599,6.784798,0.8600899,0.8280212
0.23469919,0.12045415,0.75914216,0.35071954,0.43229964,0.585777,0.9767666,7.473656,0.7787214,0.94960797
0.20637295,0.6261489,0.5953879,0.44213483,0.17593513,0.7862302,0.4215895,8.779605,0.2590736,0.7892598
0.19032593,0.092237346,0.6941055,0.2723607,0.5345268,0.48930976,1.0279144,7.146396,0.9625051,0.94543076
0.15103935,0.20379762,0.8518637,0.4580583,0.5852147,0.45164284,1.1358157,7.4087944,0.86651796,1.0525527
0.10947942,0.16834022,0.7952694,0.43061367,0.40042993,0.3516455,0.8419167,7.407076,0.7425648,0.90112376
0.16602919,0.30106807,0.51582056,0.5266502,0.2556762,0.6239875,0.48972565,8.616147,0.29385608,0.31200254
0.16675343,0.15120013,0.8055741,0.3020579,0.30872932,0.39360663,0.80560464,6.9762816,0.5295539,0.73333246
0.27564487,0.6096394,0.8038601,0.40340897,0.121481,0.7447667,0.37940428,8.867202,0.32541847,1.0711762
0.2225149,0.3179341,0.41818717,0.38831562,0.2399315,0.96580255,0.35853645,9.051229,0.18594542,0.56128794
0.17274235,0.5723102,0.59698206,0.5932816,0.18393108,0.37468636,0.23725495,8.600307,0.26266626,0.55613446
0.25693232,0.15051265,0.56451946,0.07632353,0.23847078,0.5241149,0.3156609,6.6489997,0.53529435,0.70408225
0.12493208,0.6720462,0.40106976,0.47855198,0.11195385,0.40895888,0.38362068,9.277407,0.2530866,0.31025615
0.06686194,0.46512473,0.7290208,0.69451326,0.3372532,0.24945779,0.6141959,9.030997,0.34141546,0.45149517
0.101681724,0.13463464,0.7786382,0.33508974,0.58184975,0.3170693,1.1070945,7.195374,0.83349234,0.95255166
0.094154924,0.102680795,0.5534661,0.1322395,0.49146932,0.32079142,0.8421159,6.3010774,0.6451361,0.6206815
0.14368527,0.11476791,0.75635445,0.33859232,0.5747004,0.3628278,1.0894895,7.0847225,0.81956935,0.96960884
0.10533065,0.5879766,0.40196136,0.54494834,0.11279191,0.36467642,0.34060654,8.405834,0.27750662,0.33250698
0.13801527,0.46611604,0.365603,0.3169043,0.16537604,0.5182515,0.26337558,8.970706,0.18365347,0.31821105
0.07139364,0.3746896,0.5862863,0.61908823,0.25338176,0.7674327,0.53296405,9.313497,0.3209609,0.46216458
0.08220984,0.08597078,0.67071235,0.2305789,0.41414887,0.34386647,0.7118141,6.8498945,0.6535699,0.84520215
0.1723247,0.241205,0.5835578,0.43525994,0.31411535,0.9546785,0.5387232,8.314278,0.32395813,0.5876594
0.2657358,0.077981435,0.6916781,0.25006485,0.47008035,0.5749637,1.0304011,7.285154,0.81415343,0.9324937
0.20561516,0.10129453,0.6740715,0.2368939,0.4259422,0.5462981,0.9599824,7.070603,0.7383582,0.9123561
0.12078921,0.23133095,0.8820668,0.48513144,0.55646116,0.41872495,1.2041812,7.575482,1.106344,1.1588932
0.26905474,0.56550264,0.50206214,0.42341712,0.15563615,0.6621812,0.24579614,8.730288,0.39410046,0.5928718
0.21633261,0.09112694,0.68034244,0.23604599,0.5435327,0.44486323,1.02264,7.3332567,0.8983339,0.9167178
0.21465592,0.11297777,0.6516285,0.18891373,0.5297757,0.4467474,0.99431735,6.9411807,0.741458,0.8333304
0.17350473,0.60608745,0.46203226,0.5848405,0.13344736,0.3477397,0.32573482,8.544062,0.21074413,0.28543746
0.27198336,0.47962892,0.6206598,0.5301889,0.061199,0.53110135,0.21561253,8.994447,0.36247477,0.5325168
0.0687601,0.09257534,0.7204732,0.28421116,0.4174025,0.34797105,1.0569513,6.7464614,0.7733379,0.8913002
0.2858363,0.09998207,0.6492048,0.20224866,0.25248957,0.5111816,0.7214628,6.901601,0.5996732,0.8141511
0.12861434,0.48041415,0.41429332,0.5259678,0.12728697,0.2585512,0.31232828,8.37522,0.3390033,0.538286
0.23814087,0.29228842,0.6654215,0.39891502,0.097139746,1.2132908,0.13825518,9.390459,0.3094147,0.8996509
0.10791041,0.64508146,0.509796,0.6554666,0.16260499,0.25601768,0.38491833,8.695893,0.2822401,0.33119076
0.28132978,0.13868734,0.78551966,0.38148987,0.42028168,0.59334874,1.0093011,7.725431,0.78584206,0.95873594
0.27387974,0.12247686,0.6128955,0.15968439,0.36760005,0.5461827,0.9272661,6.897227,0.6958458,0.8381546
0.19806659,0.09523362,0.692109,0.2455715,0.48397282,0.46783224,0.9412379,6.8283143,0.6892716,0.8313533
0.4270492,0.29658735,0.7089097,0.56763464,0.20674257,1.3540548,0.5201529,9.71748,0.46908456,1.0208873
0.023497568,0.13194078,0.45256904,0.3490603,0.086096875,0.07454234,0.2991152,6.4987354,0.3543018,0.51513165
0.14628474,0.16702217,0.8202058,0.41236615,0.5052947,0.39568284,1.1111696,7.189785,0.8107112,0.9974621
0.16997772,0.4707568,0.4459676,0.46226028,0.15808855,0.35064167,0.2844447,7.7567177,0.21630833,0.45900124
0.10479954,0.49000478,0.47111955,0.506592,0.15966871,0.24718931,0.24652159,8.612206,0.22019157,0.43630192
0.20253631,0.48238406,0.4265667,0.33267725,0.18193637,0.7385199,0.2658094,9.090787,0.17447397,0.48371422
0.1359703,0.1159069,0.5916532,0.13079467,0.43021318,0.30943197,0.80448854,6.7892056,0.63879925,0.8006249
0.14721487,0.19919841,0.853734,0.45344928,0.49049643,0.4512469,1.1774452,7.383397,1.1166501,1.1267798
0.24784684,0.37135643,0.7839869,0.49054796,0.20786335,1.2357167,0.36651063,9.59301,0.26720676,1.031686
0.064556986,0.10388348,0.67258275,0.22612272,0.5289875,0.31714323,1.0125726,6.696654,0.90888226,0.90056974
0.26937985,0.1347037,0.6167663,0.15069945,0.26056337,0.48935375,0.75947213,6.692591,0.5752324,0.80863607
0.06787389,0.09608849,0.68484485,0.23087856,0.5442906,0.32169917,0.9793708,6.990574,0.69853204,0.8260253
0.121623784,0.5496518,0.5209208,0.4080486,0.13986254,0.3921314,0.48690382,8.835868,0.2949239,0.24180917
0.2349946,0.12906891,0.7789425,0.37680003,0.3937712,0.59891075,0.96744066,7.475957,0.7606898,0.96269083
0.24046612,0.13948786,0.5944703,0.12480148,0.11886013,0.50032485,0.52418554,6.687298,0.3914015,0.6581307
0.24074788,0.10877061,0.644514,0.19483584,0.40984106,0.5222549,0.9123232,7.0137753,0.7155342,0.86641866
0.38864383,0.64633685,0.6145642,0.51226175,0.086029,0.8001846,0.39798906,9.263025,0.3272847,0.75384724
0.20240748,0.12426734,0.6166911,0.15744402,0.31035718,0.39835575,0.7408395,6.683466,0.5598904,0.7669013
0.19491704,0.20183092,0.84513485,0.44987348,0.44516176,0.54737633,0.98023856,7.4948506,0.7550237,0.9405401
0.23936304,0.106700346,0.6254404,0.18737471,0.17452417,0.45437726,0.4222532,6.6935153,0.35296792,0.6029382
0.08139157,0.10342576,0.73365796,0.2435021,0.5626337,0.30208024,1.0699027,6.896431,0.917195,0.9784953
0.32019985,0.5232202,0.6498697,0.36033735,0.17892426,0.80655247,0.7284142,8.510791,0.5769183,0.72821057
0.24617468,0.10163525,0.7466077,0.32382214,0.4305741,0.57253987,0.9699161,7.4722285,0.7508706,0.9131349
0.43554413,0.18489297,0.6311424,0.32718268,0.2443539,1.2576952,0.5446514,8.31324,0.4476173,0.8862917
0.14218085,0.06880089,0.65978485,0.21772635,0.5207796,0.60424644,0.99725956,7.8073483,0.92451125,0.88471216
0.12257666,0.18830445,0.83943856,0.43103647,0.61543375,0.46852437,1.1649173,7.186991,0.9847399,1.098549
0.13052537,0.15044928,0.7476477,0.38793844,0.21055795,0.35552648,0.6153777,6.966358,0.47273505,0.639491
0.24666364,0.12985711,0.5773343,0.10813859,0.29077876,0.49510396,0.6667244,6.847239,0.60607976,0.77783555
0.25498533,0.39662686,1.0242977,0.6553175,0.4995116,0.64797837,1.2130599,7.9234977,0.96340257,1.1907661
0.14103302,0.18655156,0.8356203,0.4380762,0.44849557,0.47402108,1.0831789,7.446399,1.0184793,1.1160153
0.015168905,0.116022035,0.5869516,0.142497,0.22918446,0.37152204,0.564028,5.4052396,0.3830894,0.7115716
0.089068346,0.5188066,0.3849583,0.5988861,0.19388394,0.21963535,0.32830298,8.374136,0.2979232,0.48881418
0.25806034,0.6385533,0.4451449,0.571593,0.16599767,0.5014111,0.32026002,8.716351,0.19525145,0.57435906
0.311809,0.29513764,0.7961931,0.5279246,0.09424334,1.37354,0.45165727,9.653317,0.41022804,1.0705729
0.22294681,0.17186946,0.8215227,0.4080562,0.43621582,0.54956746,0.9626888,7.7403135,0.72782207,0.9002736
0.0952267,0.2533375,0.9210046,0.3683722,0.24929807,0.31310794,0.9772097,7.1389594,0.6761157,0.82760775
0.22699937,0.46789244,0.42329508,0.30401734,0.120642036,0.82343185,0.1691033,8.801719,0.21327329,0.5048344
0.21859019,0.4078157,0.7409674,0.61969507,0.28597403,1.3075742,0.59549236,8.807135,0.34840912,0.9428519
0.18675981,0.19248441,0.8405506,0.44813287,0.44939944,0.5733361,1.0656837,7.8486333,0.8405088,1.1043501
0.20642768,0.63310593,0.41732654,0.42665374,0.1225226,0.7044517,0.12737966,9.021031,0.2550343,0.51357275
0.12510829,0.3194158,0.46297714,0.28016794,0.21049736,0.40346128,0.40490118,9.106024,0.25626114,0.2831421
0.10115521,0.1708217,0.492654,0.31423467,0.19129784,0.34028265,0.3686863,9.486972,0.26780435,0.3175762
0.13166845,0.21077128,0.86116534,0.33502358,0.6202475,0.31022587,1.1153444,7.4493084,0.82432646,0.9336227
0.25278136,0.115365684,0.6193266,0.17577583,0.34285793,0.5315752,0.8688882,6.945869,0.6527534,0.84650636
0.2502749,0.14518467,0.5851771,0.10014528,0.16790913,0.5257887,0.5186726,6.756859,0.41709137,0.67224765
0.24964425,0.10069491,0.718383,0.29706407,0.55917454,0.47594768,1.0541341,7.1904116,0.8725259,0.97378767
0.12874587,0.2118263,0.8725238,0.34076154,0.4859949,0.3865206,1.0318589,7.0874043,0.7494018,0.888538
0.19278212,0.18698877,0.5282987,0.24681301,0.16337295,1.0270785,0.25930354,9.7005415,0.21755382,0.726865
0.15812017,0.6394818,0.3320262,0.44522655,0.15904558,0.36148685,0.40417182,8.915958,0.23931436,0.24250527
0.27186424,0.5817096,0.5411002,0.59685016,0.1263196,0.60282207,0.21130452,8.484361,0.31862324,0.75971335
0.19697924,0.6993313,0.3940221,0.5837068,0.1221972,0.5356535,0.22936645,8.878348,0.16020091,0.47512627
0.14075032,0.13527946,0.781958,0.33664045,0.5870144,0.3767185,1.0603825,7.142602,0.77627915,0.9012826
0.14925937,0.36516452,0.6863296,0.56439865,0.16208805,0.3346912,0.20214844,8.063478,0.3238284,0.89570534
0.14043279,0.12618835,0.7773324,0.2601641,0.582433,0.3582206,1.109654,7.008242,0.8423342,0.9387054
0.18193209,0.31471458,0.47337374,0.5575214,0.22487883,0.6263144,0.43872118,8.898112,0.25819093,0.2825879
0.16339822,0.12394267,0.57991326,0.10865547,0.4996784,0.4125395,0.9020496,6.4110303,0.6784007,0.73898494
0.34375197,0.53330195,0.6329809,0.34846318,0.090658724,0.80871564,0.7258039,9.113788,0.5860022,0.74608225
0.19792734,0.7186427,0.39400032,0.50343394,0.113869034,0.59668195,0.3162732,8.7799015,0.17944652,0.31067467
0.30094114,0.07782535,0.69258475,0.2601348,0.29324573,0.5558679,0.8222956,7.5021186,0.65702647,0.8887326
0.17642686,0.11158909,0.3699113,0.34383774,0.28369266,0.68700856,0.5616406,7.2222657,0.3833891,0.5214023
0.27003852,0.06349909,0.5996567,0.14216198,0.24535635,0.49974254,0.68545973,6.76161,0.5736409,0.80137324
0.089020826,0.51648617,0.40551692,0.67271245,0.17410633,0.30397457,0.2761864,8.450595,0.2122631,0.5177087
0.09914923,0.16347872,0.8096928,0.3387254,0.34766757,0.3105082,1.084159,6.923432,0.7754633,0.91132873
0.36372733,0.18992195,0.55443233,0.19813873,0.23599902,1.1313174,0.45729357,9.174425,0.42121637,0.7627372
0.08149771,0.12244279,0.55468726,0.13353845,0.18870285,0.41864228,0.3595584,5.070761,0.24117683,0.506728
0.07833621,0.05122068,0.6867766,0.28963968,0.11624786,0.3192952,0.4437985,6.6003613,0.5080275,0.7539043
0.2974282,0.44855484,0.6114088,0.665095,0.12653552,0.91456366,0.20222273,8.650249,0.40859076,0.76645494
0.14102225,0.15692148,0.7965219,0.27930796,0.5907838,0.34350446,1.1235043,7.168447,1.0772111,1.0602643
0.23325987,0.3605371,0.47986495,0.3765057,0.10979381,0.7857613,0.11005409,9.22928,0.25762147,0.56845313
0.20006146,0.45860398,0.5775238,0.3128058,0.14444874,0.92205966,0.21300259,8.761156,0.24023983,0.7713326
0.17196733,0.4475875,0.4605613,0.34889704,0.17686231,0.7812721,0.23775788,7.91485,0.21462558,0.48414484
0.17177705,0.32185254,0.45793596,0.53539276,0.14879124,0.64871347,0.29143518,9.574219,0.19359598,0.33945382
0.08038256,0.11940249,0.60663205,0.16520871,0.3832583,0.3496882,0.6763114,5.790818,0.4079408,0.5970998
0.333911,0.5388081,1.0414761,0.7480644,0.15652975,1.5960274,0.7182831,9.044816,0.59472495,1.352738
0.117526196,0.08364872,0.58935326,0.16229165,0.3071456,0.46443054,0.6228572,5.3092074,0.3740228,0.7015834
0.6487237,0.12956485,0.78749156,0.3853551,0.38714883,1.2759491,1.1187364,8.403352,1.0835848,1.0580859
0.16256699,0.63820434,0.8123938,0.8741039,0.18216228,1.3044732,0.50237733,9.311527,0.346096,1.0159037
0.18999882,0.21750833,0.86013097,0.47105983,0.5838686,0.53125685,1.1800073,7.671851,1.1014817,1.1347973
0.22406702,0.091166176,0.72102463,0.298728,0.5558822,0.46264154,1.0563033,7.604696,0.8782083,0.97368985
0.15954891,0.23592626,0.9057613,0.3820541,0.5276407,0.37673476,0.9645397,7.233072,0.6674152,0.8460577
0.20910326,0.117145784,0.62229776,0.16021504,0.50008106,0.5227709,0.96423405,7.02791,0.8777155,0.8421964
0.18846251,0.079654224,0.51960695,0.13050544,0.43052647,0.46181878,0.8663634,6.58545,0.72670263,0.7857377
0.18696332,0.16784379,0.8207295,0.411194,0.3421162,0.46770003,0.83060575,7.452966,0.63769567,0.85957307
0.10563131,0.09035183,0.60750216,0.23162448,0.18404187,0.33409634,0.22975488,6.4518747,0.37599304,0.53442246
0.1105543,0.20056655,0.85109705,0.37094402,0.6231894,0.31773794,1.1327246,7.2100925,0.83624953,0.9446309
0.11407585,0.12501335,0.622297,0.14804669,0.50766814,0.3814765,0.96103007,6.8915095,0.72221404,0.80230236
0.10278288,0.18058883,0.87462115,0.3079224,0.44868425,0.32642335,0.96049875,7.111764,0.84568197,0.97507334
0.09684367,0.13273709,0.7814148,0.3603294,0.5828076,0.4279415,1.1110709,7.2272687,1.0529349,1.0412408
0.39020196,0.18503733,0.72759247,0.42806953,0.15375355,1.3503535,0.5639545,9.604962,0.50186217,1.009838
0.13861395,0.11517643,0.7286681,0.3216432,0.3374543,0.3550142,0.86247414,6.6909313,0.7773611,0.93650734
0.3317364,0.5086691,1.0686532,0.74265605,0.15705891,1.6294296,0.7335629,8.669945,0.59690124,1.392067
0.20513614,0.102963686,0.71085685,0.28960922,0.31118384,0.43965736,0.76809186,7.161734,0.58358616,0.7924467
0.30914798,0.6248619,0.74835694,0.44244882,0.10157541,0.7820312,0.36665404,8.990714,0.32239544,1.0114409
0.16702493,0.14364268,0.7888742,0.38922632,0.57942694,0.53701234,1.1143796,7.5679393,1.0062715,1.0562272
0.122207284,0.23700006,0.8803585,0.45437607,0.6342565,0.40226975,1.1979578,7.711479,0.98858684,1.1065332
0.24569522,0.5665182,0.66433173,0.47024477,0.09698254,0.6332967,0.16287528,8.580411,0.30868644,0.8247483
0.17578688,0.6125445,0.4426452,0.4777764,0.15943111,0.4502569,0.3404126,8.906554,0.20582546,0.3275159
0.13556613,0.23736346,0.56920004,0.29726905,0.15052135,1.0664055,0.23525885,9.305439,0.27542916,0.8035175
0.23756549,0.0866283,0.67701423,0.23648949,0.28650793,0.47794545,0.78359205,7.178205,0.58061546,0.83730257
0.16100188,0.08927672,0.6484079,0.21391234,0.44266754,0.4344202,0.8874866,7.2813253,0.7251321,0.888859
0.22052704,0.13270475,0.5663549,0.085074514,0.18914329,0.46624586,0.6360099,6.7130017,0.43970412,0.70457655
0.14312533,0.534256,0.3082219,0.45163983,0.17251468,0.4278999,0.3478009,8.442998,0.24205801,0.3092054
0.2445712,0.36597323,0.99272054,0.6272725,0.5444489,0.6981649,0.98676044,8.304972,0.71302325,1.0282824
0.19229515,0.620452,0.36900464,0.48823863,0.13891408,0.57182264,0.22865851,8.871577,0.1969354,0.36112848
0.17725389,0.5506979,0.4517644,0.38865438,0.1774034,0.49988842,0.18465103,9.248477,0.24590136,0.40814763
0.19102214,0.09832777,0.67681736,0.22944595,0.522635,0.3948147,1.0102901,6.9492197,0.8486374,0.90777093
0.18060325,0.13609652,0.5881515,0.102706335,0.48278165,0.4651554,0.92601854,6.9057035,0.7326403,0.76720625
0.17751311,0.13838273,0.7690236,0.30336574,0.52641743,0.38397813,0.96090424,6.8630095,0.6668903,0.82564694
0.12624227,0.22142464,0.68027127,0.3560719,0.26650006,0.3543284,0.83772475,7.111502,0.8132,1.007838
0.27613804,0.13715924,0.59404826,0.17641757,0.20073943,0.58434683,0.47409242,7.0419855,0.45962104,0.7260844
0.24220891,0.103515625,0.40004033,0.17542961,0.38754645,0.60690445,0.7274894,6.053464,0.65032685,0.5874606
0.17883742,0.3881286,0.50979507,0.65123284,0.18307291,0.38818482,0.23865667,8.184949,0.26674238,0.675014
0.10546095,0.12352261,0.6571297,0.19094232,0.51700616,0.3197883,0.9968248,6.8604817,0.7184967,0.84871906
0.098320104,0.54908395,1.0907003,0.7595484,0.09157714,1.5907849,0.6295023,9.000499,0.52974373,1.3615044
0.30747294,0.17766327,0.81908214,0.43340647,0.42782047,0.70964694,1.1020823,7.746885,0.906105,1.0953406
0.13863835,0.0801317,0.7096368,0.28637603,0.43813577,0.43589616,1.0433387,6.764767,0.9916766,0.96532375
0.1503704,0.73173976,0.47727087,0.5358437,0.11416596,0.54152036,0.23386124,9.227404,0.20445287,0.33854374
0.18079206,0.2768783,0.5687615,0.44581416,0.33265036,0.9154876,0.5250193,7.97373,0.31639513,0.549608
0.15956452,0.813196,0.44056877,0.8081884,0.1501439,0.35738534,0.21711227,8.900483,0.27671462,0.47082543
0.14301087,0.48013866,0.47083202,0.49136356,0.11115559,0.27145916,0.22709751,8.632989,0.17906812,0.35876447
0.052391395,0.116518274,0.59129226,0.13470104,0.47292605,0.304029,0.9318675,6.1171775,0.8361461,0.78836876
0.18680024,0.13402231,0.56965035,0.11252314,0.26775938,0.41689643,0.63453966,6.439149,0.535226,0.7506946
0.1403293,0.24619545,0.9484124,0.36444888,0.56241626,0.3946586,1.1156303,7.4849486,0.82556623,0.96063036
0.23135167,0.10912622,0.7604848,0.35228604,0.5633131,0.50564176,1.0942292,7.587062,0.904982,1.023836
0.07674022,0.117323734,0.60653925,0.1780105,0.504038,0.3306725,0.9079519,6.0845714,0.6100904,0.7493488
0.14637655,0.260443,0.5720018,0.47474197,0.29479048,0.93851656,0.53077495,8.679474,0.31591135,0.5768069
0.18071887,0.09518354,0.7282302,0.2997371,0.5593741,0.42763153,1.062588,7.2619724,0.9266345,0.9771095
0.119930446,0.111278854,0.7482824,0.22018127,0.5657033,0.33906028,1.0847273,7.276388,0.83947337,0.9271793
0.22410393,0.12474606,0.596202,0.13797985,0.16998781,0.49147668,0.573442,6.74311,0.463633,0.7151202
0.1377134,0.15715452,0.59237796,0.18124971,0.3829582,0.51532286,0.93633616,7.45802,0.875197,0.83101493
0.14258026,0.20933887,0.8583765,0.46037492,0.62305796,0.46040392,1.1775228,7.7013416,0.97884583,1.1076491
0.20050849,0.11455582,0.53276676,0.081674434,0.22624236,0.4631775,0.6276333,6.607631,0.47914898,0.63235855
0.14035928,0.12587054,0.59845775,0.1564147,0.29566064,0.47627062,0.5982882,5.754479,0.33940253,0.44114852
0.21894147,0.091205396,0.658642,0.22894299,0.4934874,0.49051544,1.0094488,7.295309,0.806632,0.9015505
0.08072486,0.28843,0.55973965,0.24221359,0.43297926,0.7234053,0.6940981,7.9118133,0.45894852,0.64827424
0.13971953,0.37214336,0.4744702,0.5777766,0.23704885,0.4134902,0.43008348,9.37701,0.26655594,0.22746989
0.21900502,0.47344324,0.90680075,0.3534313,0.11571647,0.9237962,0.51714265,9.117831,0.4023411,1.0254868
0.15222526,0.561585,0.42552274,0.46734485,0.12893954,0.5953107,0.33843422,8.447727,0.22771451,0.3026946
0.14053246,0.5723229,0.4273828,0.529978,0.17246768,0.5236072,0.23465966,8.710912,0.25602588,0.395361
0.11313694,0.115002416,0.6167448,0.10662547,0.5211893,0.41041195,0.88356096,6.554012,0.60919404,0.6548869
0.2002561,0.11630425,0.6296108,0.16707854,0.44456205,0.4649272,0.90971816,6.70599,0.68600476,0.82959896
0.1857341,0.11289755,0.70300514,0.26415157,0.33523166,0.41039088,0.7371922,6.663747,0.43889084,0.6239608
0.18965815,0.11781448,0.76024026,0.3529196,0.57191473,0.47091594,1.0938352,7.3994274,1.0447031,1.0209093
0.16095297,0.6865981,0.4779932,0.6796317,0.07649203,0.36611578,0.1702884,8.715412,0.3361759,0.5553093
0.18521072,0.067714594,0.71752197,0.3117499,0.56564975,0.43143958,1.0604951,7.2572765,0.9263608,0.9881858
0.14283077,0.16000731,0.80739784,0.40999258,0.6028771,0.52911144,1.1339754,7.524878,1.0457866,1.0794451
0.12180553,0.118564904,0.7708991,0.35010582,0.5848207,0.44971794,1.1038549,7.029904,0.9815237,1.0286987
0.09634238,0.12712578,0.37625644,0.15107867,0.27908382,0.84177107,0.53335714,5.7606373,0.28625485,0.51130766
0.30259255,0.2892138,0.52748436,0.33365119,0.15693134,1.1350007,0.40964586,9.246655,0.3260699,0.80425465
0.23488726,0.6499968,0.406709,0.45559925,0.13949384,0.69644725,0.24019417,8.914556,0.3307189,0.59497964
0.047293156,0.10652144,0.6646747,0.17491786,0.5292651,0.31529933,1.0007114,7.3393135,0.91319203,0.87730485
0.5384199,0.23158228,0.9737075,0.4321532,0.2191839,1.3423307,0.8493748,9.653235,0.779665,1.1796036
0.2814321,0.1408774,0.78745675,0.38311818,0.29413992,0.5161287,0.8005089,7.4344525,0.6160279,0.8291599
0.18888028,0.7108897,0.26629555,0.5408266,0.110783905,0.51104707,0.31186995,9.128842,0.20083709,0.26171193
0.17134592,0.3865399,0.4116127,0.44714007,0.05455874,0.4247202,0.26302412,8.04126,0.20990472,0.33267617
0.25860953,0.08753727,0.68254787,0.25235215,0.5038348,0.545978,1.0260906,7.284726,0.8375075,0.92865485
0.26933622,0.082304,0.71771,0.31058103,0.37755477,0.67861986,1.0022589,7.3745713,0.81134707,0.9795659
0.19891371,0.09518354,0.74604356,0.3324392,0.45931515,0.58855796,1.0158908,7.2191663,0.81839436,0.99365014
0.120063186,0.33045027,0.35750026,0.20994334,0.21348447,0.3687934,0.33603117,9.281651,0.22378229,0.28162104
0.1598325,0.091911085,0.7042807,0.27923968,0.4581464,0.4697704,0.97568697,6.8977485,0.7457841,0.9436229
0.16833647,0.096430294,0.71322566,0.29254243,0.5463154,0.36360666,1.0517544,7.2376766,0.8791645,0.95922697
0.2858582,0.14231534,0.5261157,0.060511425,0.23503174,0.51068586,0.34368792,6.4872,0.51525104,0.68688107
0.13608605,0.21663295,0.83730143,0.47492725,0.36739036,0.3669996,0.76882905,7.4599133,0.5031073,0.731022
0.17823668,0.097142205,0.5513171,0.10495775,0.21949586,0.4007361,0.56727165,6.2062206,0.41538674,0.60400796
0.19093,0.49118787,0.48071432,0.49506542,0.11785091,0.4418889,0.22481945,8.473616,0.22462158,0.4620578
0.16143739,0.37124214,0.43355608,0.29641005,0.16015923,0.8321092,0.24892671,9.149141,0.14873435,0.4949291
0.23017582,0.1039913,0.7366421,0.32240802,0.56405234,0.4644696,1.0766041,7.0986896,0.8984069,0.99439204
0.32070613,0.588294,0.6892949,0.37701827,0.15095237,0.7436059,0.47024804,8.880608,0.39199802,0.7172832
0.21749434,0.7107188,0.5231213,0.5858546,0.15420182,0.48255658,0.2506686,8.937106,0.30206144,0.5470681
0.09414233,0.11094197,0.6199097,0.17623842,0.51612574,0.38362136,0.85698843,6.038208,0.5640884,0.7221804
0.15974459,0.5744911,0.3123802,0.41161096,0.1035847,0.48908958,0.12813546,9.195856,0.24282016,0.37839055
0.13682555,0.17590056,0.8261222,0.36354104,0.6084392,0.3810974,1.1477826,7.4615903,0.9138921,1.0209547
0.09994378,0.22229725,0.87379616,0.41470316,0.61757475,0.36130023,1.0554904,7.4337573,0.7670496,0.92628413
0.033331208,0.1264573,0.59704876,0.13974571,0.18644162,0.42294532,0.8759043,4.7676864,0.6976329,0.65996754
0.23672341,0.7705397,0.4994246,0.73825234,0.1753222,0.3855915,0.2879237,8.945141,0.23516205,0.68917364
0.03150751,0.109198295,0.76453495,0.21123286,0.42932308,0.29314023,0.999773,6.972405,0.9537562,1.0027704
0.31140563,0.15225452,0.57227397,0.093333274,0.4318804,0.63008296,0.91297454,6.964214,0.8192891,0.7794451
0.35387975,0.2657928,0.6644236,0.4633915,0.242747,1.2993436,0.5060116,8.632569,0.38443646,0.9029725
0.19007057,0.3950675,0.682918,0.5215671,0.07622663,0.42648157,0.39405355,8.224388,0.37500635,0.63001436
0.12991987,0.12886,0.61428887,0.13254115,0.50297564,0.40005833,0.9517508,7.2461643,0.8526945,0.8039555
0.22732067,0.13949299,0.53480375,0.15571733,0.44278494,0.65204155,0.88238937,6.8237576,0.7221425,0.8313153
0.28572887,0.57926047,1.0782517,0.7989129,0.17531472,1.6528127,0.69513625,9.144251,0.5868312,1.3804975
0.27277339,0.3364715,0.7681246,0.47482008,0.16113429,1.2704133,0.465106,9.477645,0.3474333,1.0288432
0.24204949,0.33903918,0.6228697,0.4232165,0.1502082,1.0128644,0.25217965,9.305057,0.29079393,0.83817595
0.2723396,0.119789235,0.7669361,0.35929736,0.4572108,0.6125953,1.0492805,7.4704356,0.84598166,1.012998
0.24796279,0.6428107,0.37238353,0.47275335,0.15182249,0.7191901,0.38739172,8.659134,0.16451383,0.40074417
0.20942661,0.072673574,0.68606037,0.28951702,0.1115378,0.5535719,0.7991847,7.174594,0.57861245,0.85432637
0.123705044,0.6766162,0.46629196,0.6785272,0.14166637,0.27606425,0.24922536,8.687702,0.20688955,0.3882975
0.016936613,0.22492123,0.5155993,0.33336273,0.39623144,0.5396045,0.71506333,3.5446312,0.42269126,0.6239619
0.19740994,0.0946485,0.67212707,0.22605102,0.28107575,0.42370382,0.6541748,6.5240593,0.40251377,0.60521317
0.1425022,0.34208658,0.36939308,0.28367206,0.17494988,0.4494467,0.20751263,9.623022,0.25540003,0.33736488
0.2763946,0.4840855,0.47953197,0.32483402,0.17348076,0.87858987,0.24009588,8.7603445,0.2554369,0.6709752
0.1592704,0.101468556,0.72371584,0.29819676,0.43192002,0.4239427,0.88623947,6.950609,0.66441864,0.8392185
0.16439386,0.12121773,0.7663614,0.35419816,0.46601182,0.44817215,0.9535825,7.328528,0.71413785,0.8920138
0.3304078,0.066585526,0.66894925,0.27321157,0.47819638,0.743743,0.9974293,7.2088904,0.8811412,0.9489267
0.1365159,0.46319517,0.47205383,0.24041493,0.24511719,0.86377144,0.46128547,8.474412,0.28835148,0.584771
0.25137088,0.114551656,0.74015737,0.32245275,0.2878214,0.45375317,0.7624713,7.002012,0.58500427,0.8188607
0.19735643,0.7156401,0.4626222,0.6305264,0.110646084,0.52172863,0.20778017,8.636982,0.18186428,0.42600432
0.18623677,0.519509,0.22724444,0.35582137,0.16453701,0.44809747,0.17235705,8.988783,0.2721961,0.42780322
0.07226523,0.12222159,0.6000929,0.14518467,0.35463357,0.43605912,0.84369576,4.7580237,0.64560175,0.64021075
0.22735326,0.12930699,0.57381546,0.09429898,0.24881607,0.4681158,0.6258387,6.5728245,0.5459727,0.74619377
0.12528071,0.67649317,0.47720593,0.49826008,0.1618599,0.37726822,0.41536033,9.092735,0.25000143,0.2873866
0.25568902,0.104276344,0.630456,0.18561368,0.5106848,0.5502338,0.97410077,7.2685432,0.8332268,0.86356467
0.14201748,0.08788927,0.63594615,0.21251063,0.5105225,0.4706061,0.97620255,7.345848,0.90911996,0.8929626
0.20396455,0.29876667,0.97524273,0.4473661,0.31276006,0.46974403,0.9144323,7.4026513,0.92770046,1.0601166
0.10597167,0.123447314,0.35242,0.14117071,0.29132718,0.9217745,0.5430882,5.957333,0.28772157,0.57590574
0.29269028,0.1591662,0.55615234,0.07775026,0.41031027,0.5478612,0.8528493,6.6385183,0.76525855,0.75000685
0.17494039,0.1856856,0.821049,0.4473517,0.5852967,0.53607285,1.1456577,7.6582084,1.1020986,1.0961931
0.085260935,0.10382609,0.7461449,0.27342835,0.5521001,0.3410731,1.0811318,7.18715,0.7866607,0.8870185
0.20371023,0.25470316,0.8909475,0.50735945,0.38187402,0.60909045,0.7654006,8.364365,0.7231111,1.0372674
0.20768602,0.35733116,0.4377882,0.2802292,0.13950923,0.64766866,0.23669204,8.974027,0.2137356,0.40029028
0.17331189,0.22527288,0.87734646,0.45814052,0.5661267,0.41472906,1.0443205,7.4933443,0.77177495,0.92519814
0.3905642,0.29632115,0.83425105,0.5521641,0.18221529,1.4378506,0.5953032,9.764266,0.52205235,1.1173594
0.13327916,0.22263911,0.57220894,0.4101045,0.2584166,0.27698764,0.51982075,7.8295546,0.31726843,0.3207272
0.16321237,0.26283595,0.42442316,0.28591692,0.18168262,0.5276984,0.25479767,9.214356,0.20981668,0.2855122
0.1063355,0.09510837,0.67299575,0.22888467,0.334983,0.3081551,0.8108392,6.351707,0.68262774,0.7976345
0.27784833,0.09740446,0.7550006,0.33872575,0.24022147,0.5589798,0.7428785,7.6999793,0.61118984,0.90338904
0.21097192,0.1303903,0.78223664,0.36973402,0.5809712,0.5412178,1.1140343,7.398454,0.99890035,1.0449321
0.107501164,0.057840206,0.7098108,0.2883833,0.23975356,0.34197196,0.6086605,7.006133,0.6103252,0.80294156
0.14583392,0.57391185,0.30370975,0.42302632,0.14233713,0.45056587,0.27617,9.058786,0.23727204,0.36809412
0.1847939,0.11874373,0.53566504,0.07684188,0.34991783,0.37006575,0.7516122,6.289788,0.50484127,0.6445579
0.55262965,0.246524,0.5574333,0.14426707,0.13694961,1.055939,0.6459276,7.923194,0.5851231,0.72698665
0.10369544,0.2044278,0.5370357,0.26404822,0.16290529,1.121432,0.30935612,9.433933,0.3420472,0.7870753
0.17147626,0.2093571,0.79669696,0.35167134,0.43001738,0.387052,0.8118397,7.1364927,0.53995377,0.70064336
0.24741353,0.21877398,0.8645419,0.4505815,0.46616375,0.48322266,0.9297193,7.524936,0.64199156,0.8483006
0.12630421,0.28305408,0.93295485,0.5394584,0.66308016,0.48953485,1.2435942,7.55265,1.0156065,1.1650336
0.2365352,0.17915465,0.8232439,0.4240022,0.49664348,0.5456661,1.0824171,7.564741,0.8317884,1.0117102
0.22743541,0.52982676,0.29678947,0.3191511,0.14059448,0.649057,0.251462,9.228318,0.18736771,0.3771229
0.2128548,0.43902403,0.5011579,0.30582276,0.19743837,0.9656063,0.22786261,8.159603,0.20968653,0.6646814
0.041605856,0.080901586,0.5867936,0.18147647,0.30318728,0.47270304,0.5962726,5.1335835,0.34828267,0.66269803
0.25117832,0.08389917,0.6821852,0.25497073,0.50974154,0.50737256,1.0236849,7.546493,0.8279877,0.93630534
0.08501588,0.13386211,0.78255445,0.30581924,0.41091588,0.32896832,0.7771763,6.8326387,0.49920616,0.66539323
0.15331882,0.7262202,0.41621673,0.6388966,0.15080778,0.44526944,0.29003495,9.156759,0.19880663,0.36665696
0.20013647,0.11333806,0.75404125,0.3467003,0.57808006,0.46484616,1.0924212,7.381289,0.94197905,1.0195698
0.085614294,0.096271925,0.69624233,0.2659363,0.5430254,0.32509503,1.0349807,7.0358176,0.7684357,0.91369945
0.15959485,0.6231234,0.4212124,0.58214694,0.19812068,0.4347676,0.26491678,8.440482,0.22368905,0.36355746
0.14411274,0.58028567,0.4203736,0.6118712,0.15651071,0.4427455,0.3130218,8.193531,0.26092523,0.35012013
0.2123141,0.1545439,0.8071613,0.39821514,0.59462696,0.4802969,1.132894,7.544122,0.90986335,1.0596884
0.18077703,0.15320209,0.8028294,0.40182015,0.5974889,0.58193547,1.1292156,7.646583,1.0885324,1.0722259
0.17420202,0.11436001,0.7570822,0.342924,0.574897,0.42443153,1.0897713,7.0140004,0.839705,0.9948034
0.2653992,0.63865995,0.46306828,0.49992442,0.15703082,0.61021227,0.24064192,8.904484,0.22513948,0.6193183
0.22349699,0.06891861,0.3472013,0.08466437,0.28215855,0.5065621,0.56218433,5.51499,0.51730764,0.55591416
0.13678314,0.108565465,0.6139682,0.14743668,0.5078125,0.38644418,0.9456183,6.574647,0.68912524,0.8014121
0.15089609,0.23352405,0.8825524,0.3924934,0.6200926,0.37968946,1.0983709,7.6112924,0.8185688,0.9631943
0.2377522,0.34677115,0.9839225,0.5710699,0.6945054,0.58161145,1.2870027,7.6989727,1.2575287,1.2715994
0.2232484,0.5730887,1.189184,0.7267503,0.6392688,0.5501078,1.2736698,8.433628,0.99218285,1.1871829
0.15032375,0.26807174,0.45032346,0.28958496,0.102115005,0.35125232,0.15709002,8.055642,0.23981221,0.36930302
0.30966043,0.8132654,0.5641865,0.6096307,0.1181126,0.57237685,0.26319084,9.348469,0.32923844,0.79751843
0.09021058,0.17402826,0.5373317,0.26079932,0.30184865,0.28686047,0.7176381,6.1927624,0.40994897,0.5282022
0.069890946,0.27781957,0.9206975,0.40252948,0.6440141,0.2997702,1.0508871,7.185363,0.74986666,0.88059294
0.23688862,0.61669827,0.6963435,0.874015,0.17039756,1.2411941,0.31886896,9.391006,0.27507228,0.92813534
0.15437098,0.3194998,0.66167516,0.24675167,0.20076378,1.0557182,0.50985706,8.002041,0.28762212,0.8445758
0.20656471,0.28255162,0.9246894,0.5421736,0.6479731,0.5673995,1.2384195,7.8617635,1.1996424,1.2053038
0.101630054,0.19656458,0.8433385,0.34993485,0.3739259,0.29414928,0.9317896,7.019754,0.659728,0.81127954
0.25537434,0.6136489,0.77046466,0.48007113,0.10400276,0.82926106,0.46011487,9.026964,0.4766273,0.93083507
0.07002228,0.20251726,0.8530258,0.42955765,0.6125268,0.3099029,1.1726274,7.386864,0.9128278,1.0572958
0.029167695,0.43825793,0.38662255,0.48181632,0.14100341,0.21537717,0.19275734,8.469406,0.27536118,0.48182723
0.15279587,0.24631551,0.89135045,0.50354224,0.64197063,0.494382,1.2106642,7.7592487,1.0099175,1.1728835
0.054779667,0.12336037,0.73959637,0.21791299,0.51258695,0.29582086,1.0755593,6.6554775,0.85966533,0.9457913
0.2702878,0.2119928,0.8555125,0.44881734,0.5098731,0.573845,1.1097195,7.3039894,0.8598836,1.004233
0.21360217,0.12674826,0.61764646,0.14791779,0.17765857,0.3542959,0.8117346,6.347274,0.68005407,0.8252769
0.2552416,0.16845067,0.54506886,0.05826732,0.29018575,0.53623307,0.67034113,6.700623,0.6145277,0.7064977
0.13792874,0.5308241,0.43359622,0.52360326,0.11192083,0.35718173,0.28133136,8.382347,0.2560615,0.3705556
0.1749864,0.6687325,0.46274972,0.5697349,0.15496527,0.48456675,0.42817086,8.861019,0.2522822,0.21581756
0.20186779,0.10052429,0.7485799,0.3305076,0.5288274,0.496015,1.0477179,7.439234,0.817089,0.96977735
0.14469373,0.18909664,0.83549476,0.43797386,0.571384,0.4065424,1.0932323,7.6702046,0.8237166,0.99556375
0.34979102,0.1597926,0.68161017,0.38839144,0.08129846,1.3293091,0.5158261,9.700107,0.46720353,0.9700161
0.13194,0.6275941,0.45394507,0.50023407,0.16899823,0.4495134,0.31965718,8.90037,0.2480226,0.31912905
0.15699816,0.10459709,0.64829814,0.18760297,0.52094185,0.39088047,0.99488777,7.1438155,0.9060146,0.8620739
0.287794,0.13698182,0.7865431,0.38405856,0.45944217,0.607813,1.0833089,7.409894,0.8592104,1.0176499
0.18687972,0.45501605,0.45463312,0.27402368,0.15661122,0.77034277,0.2077354,9.11786,0.17540106,0.50692344
0.2585677,0.31512645,0.609823,0.51670146,0.29268786,1.1384513,0.4947983,8.290453,0.29986015,0.74957865
0.22300704,0.093309,0.7113735,0.28158972,0.55442935,0.44697538,1.052936,7.306155,0.83650774,0.9616796
0.094926745,0.09504066,0.72420144,0.2398336,0.5556945,0.34858721,0.9727626,6.7557573,0.69092274,0.82335377
0.1657771,0.26534617,0.44587484,0.36751914,0.212773,0.6320412,0.3869397,9.470272,0.22804983,0.24610005
0.24160072,0.10054326,0.48504862,0.094365954,0.30451372,0.46307704,0.5056494,5.456586,0.3387266,0.55081177
0.20711519,0.1288489,0.5715131,0.07076036,0.21307813,0.4242779,0.62584627,6.4406114,0.4689529,0.70905197
0.19650678,0.2113598,0.85115784,0.45459667,0.60939044,0.5035369,1.1649188,7.418131,1.1153574,1.1252564
0.30125996,0.06428274,0.4389749,0.1125581,0.3754086,0.57517886,0.7634347,5.5970173,0.69351256,0.6382077
0.11541682,0.09718146,0.7421374,0.318977,0.5659622,0.4713391,1.076451,7.2142334,1.0193071,0.99285376
0.18740432,0.13358754,0.592451,0.104503594,0.23277038,0.41939312,0.6158435,6.8014016,0.45685568,0.65407604
0.17269896,0.104751974,0.6774881,0.24194619,0.29403776,0.41122028,0.71154124,6.92699,0.5104745,0.7168163
0.25750887,0.09101175,0.65131044,0.21536525,0.42378876,0.5916889,0.9976761,7.165558,0.80264276,0.8946953
0.3079497,0.15128684,0.5339185,0.089778714,0.22951505,0.5199687,0.39862207,6.2979345,0.44422513,0.62165666
0.20892094,0.09728445,0.7286233,0.33379194,0.2677144,0.46095186,0.69337416,7.358483,0.6301162,0.8439657
0.17782962,0.2626354,0.90774125,0.4659966,0.64825016,0.58319545,1.2210985,7.5793056,1.0712665,1.17129
0.1168125,0.24457286,0.8868811,0.44596252,0.6283561,0.40717888,1.1999269,7.2728925,0.96259874,1.0815403
0.12246392,0.1396638,0.55009687,0.14218797,0.47529083,0.41885108,0.8757365,6.845431,0.69583017,0.67752343
0.12513283,0.21008807,0.8588144,0.37954438,0.37052312,0.3454114,0.89726675,7.0080667,0.8276805,0.9676854
0.19619754,0.12200193,0.773406,0.35754725,0.50703275,0.43745002,0.94435567,6.823875,0.66102064,0.8286881
0.21905269,0.059132453,0.6655336,0.23816115,0.53295916,0.6607513,1.0126828,7.462474,0.9369755,0.8924933
0.15939039,0.18233104,0.83398896,0.43189767,0.61198646,0.59030354,1.1559429,7.4077954,1.1116302,1.1075157
0.07042135,0.15158911,0.8086625,0.35054752,0.5989609,0.42584938,1.1379261,7.562497,1.0542471,1.0678128
0.20962155,0.15377216,0.8035804,0.40429333,0.6022056,0.5057417,1.1345235,7.504059,0.9594128,1.0824928
0.28423944,0.13698705,0.7884153,0.38036358,0.59189373,0.5357745,1.1182691,7.6189036,0.91211337,1.0416383
0.18191315,0.18323368,0.83226705,0.4353451,0.61004525,0.494174,1.1613274,7.6489515,0.99079335,1.1090527
0.24968776,0.12767784,0.5691567,0.1014944,0.2645169,0.46382907,0.73287016,6.533313,0.5571,0.74768215
0.26013,0.14587846,0.5775263,0.10194676,0.15277821,0.4943248,0.46524006,6.607113,0.4103861,0.6486463
0.074250475,0.13568772,0.79178715,0.32990184,0.5906391,0.35255453,1.1214242,7.218798,1.066169,1.0487498
0.16690268,0.2079287,0.86065304,0.46121517,0.6228115,0.48804852,1.1783372,7.5670257,1.1419138,1.134396
0.15675746,0.1315807,0.77779204,0.37083957,0.4916472,0.49572992,1.0169821,7.4526,0.79058605,0.9760029
0.08810478,0.08761349,0.68214846,0.24662264,0.5406689,0.43857345,1.0226454,7.162431,0.95619833,0.9219419
0.22255166,0.29641366,0.9391574,0.5099648,0.66226906,0.5499075,1.2546281,7.6805706,1.1335882,1.221247
0.06585092,0.15701716,0.35328794,0.2412139,0.2772711,0.34604985,0.64137226,6.6942277,0.5999926,0.58527184
0.0702718,0.15184683,0.8215735,0.2420723,0.49827853,0.2800319,1.0534971,6.816007,0.867987,0.9531543
0.31586313,0.16561303,0.48995075,0.14564538,0.3219592,0.69370365,0.84224254,6.7546883,0.7680734,0.7596002
0.1073193,0.27196783,0.90009904,0.41187036,0.37271568,0.3569941,0.8923313,7.2410226,0.7590586,0.9198768
0.23009054,0.13892953,0.78329504,0.37516305,0.44995692,0.57156825,0.98807687,7.640491,0.7770538,0.9325661
0.15831776,0.117693,0.7535376,0.28776962,0.5135743,0.34458575,0.8954199,7.184685,0.6136247,0.772652
0.2368766,0.087771185,0.7052423,0.27815923,0.44309512,0.5371994,0.97179747,7.008142,0.74014163,0.8992106
0.073080815,0.09220633,0.7158306,0.28559947,0.52491313,0.38071737,0.9530848,6.9853563,0.71250707,0.8815348
0.2336749,0.18376379,0.8297308,0.38761598,0.519014,0.56447864,1.1571484,7.179561,0.9819312,1.0787677
0.07420587,0.2778582,0.91420805,0.51796675,0.6463466,0.40571332,1.2203695,7.5158153,1.0003483,1.1485687
0.26259613,0.11541424,0.76088697,0.34927335,0.33472598,0.54592496,0.76976776,7.332107,0.688811,0.8982764
0.083677374,0.11567629,0.62141556,0.12764889,0.51478344,0.35751477,0.95074165,6.726222,0.8184428,0.77034146
0.05134626,0.10957754,0.64396375,0.17299289,0.5255898,0.3446854,0.9851155,6.9236603,0.8949468,0.85092056
0.085110396,0.1291077,0.78470004,0.31982645,0.5853364,0.32438853,1.0508119,7.059452,0.77208304,0.8995674
0.17569618,0.11337592,0.63225955,0.17772834,0.49435264,0.41758367,0.9189769,6.8778234,0.6656976,0.79898757
0.15831,0.0721137,0.6703899,0.25427315,0.5148499,0.61847615,1.0117357,7.8012767,0.93547297,0.8926353
0.26583138,0.09700712,0.72468174,0.30970967,0.5048005,0.55731976,1.0641361,7.2431912,0.850203,0.98497075
0.17161322,0.17329651,0.8061747,0.32971388,0.30360022,0.44449273,0.91568476,6.9215913,0.7486878,0.875281
0.18661141,0.23756978,0.8814814,0.49593514,0.63435215,0.52377117,1.1951952,7.5053263,0.9956352,1.1162958
0.1548995,0.06898085,0.70773435,0.2819637,0.45134252,0.5054288,0.9415985,7.213255,0.7732509,0.9617968
0.1604791,0.09814089,0.6661477,0.21552902,0.5198627,0.36783257,1.00771,6.8543496,0.81208265,0.8965195
0.21372505,0.17107412,0.51706517,0.14144911,0.41261527,0.47801694,0.8586467,7.1664014,0.7984001,0.76516837
0.0109020015,0.08892619,0.6429023,0.12368175,0.29177204,0.54925907,0.8676718,4.6069765,0.64202327,0.62577885
0.09004536,0.20403263,0.79795647,0.3610677,0.41485634,0.27401873,0.90483314,6.83722,0.8602298,1.0104439
0.13853693,0.14863011,0.79428697,0.2801373,0.27508613,0.37214488,0.6917044,6.6919584,0.4137264,0.5997851
0.2604979,0.11662667,0.76113445,0.34773168,0.35267615,0.54742336,0.8894594,7.5160184,0.6741446,0.88880855
0.24631612,0.11430788,0.754753,0.3452435,0.5715924,0.50720376,1.0891705,7.535011,0.9313345,1.0153579
0.23462576,0.11905054,0.7625368,0.34165838,0.5750071,0.47555658,1.0974925,7.286506,0.89772093,1.0072038
0.1426352,0.09164351,0.7135797,0.2861703,0.47770965,0.46295714,0.9745859,7.2514844,0.7412792,0.9196081
0.2719295,0.11791967,0.767108,0.26727813,0.56574035,0.4939451,1.0759624,7.6286454,0.815458,0.911825
0.23642421,0.0980388,0.74227005,0.32712182,0.35352507,0.55932045,0.9013914,7.257485,0.71114475,0.9275883
0.102897614,0.10249255,0.75688195,0.3391724,0.56804466,0.34175825,1.0871621,6.9263062,0.8084463,0.9701912
0.20671865,0.11286587,0.6307439,0.19245902,0.46956423,0.49987042,0.9852652,7.167632,0.7428313,0.86273354
0.053304713,0.16617066,0.8168369,0.4070954,0.6010639,0.38608652,1.140251,7.2821636,1.0557888,1.0804656
0.2529781,0.10202391,0.6731874,0.22405407,0.52056736,0.48484087,1.0136876,6.981251,0.78043,0.90277106
0.17555073,0.09680538,0.7171811,0.28724304,0.53163224,0.4612496,1.0435774,7.1240106,0.79611075,0.94802845
0.122371495,0.20879948,0.8591364,0.36938405,0.4416935,0.3334018,0.93674463,7.036398,0.652042,0.8153584
0.19812505,0.17181395,0.8203343,0.41814783,0.5281945,0.49812233,1.0983664,7.20727,0.83266884,1.0178633
0.12891568,0.10704502,0.65053946,0.21683042,0.5215925,0.39984986,0.98788905,7.0154915,0.7218418,0.88659763
0.16679159,0.11711831,0.5860112,0.09650567,0.4893499,0.40900367,0.9205662,6.3214703,0.6742966,0.75941265
0.23326829,0.14617643,0.58617836,0.10289999,0.177022,0.44939905,0.50832754,7.013512,0.43259183,0.6544443
0.20521973,0.11876783,0.5260913,0.1942752,0.28986022,0.34340307,0.4901242,7.232421,0.31086877,0.59478426
0.24310577,0.12002187,0.76329,0.34981117,0.5026765,0.54444367,1.0756929,7.1404233,0.8217402,0.98892134
0.1092085,0.13007724,0.7995623,0.38537115,0.57475513,0.34391809,1.1114088,7.274125,0.8335111,1.0067732
0.14943604,0.22896798,0.87720513,0.48509434,0.63375276,0.4878208,1.1930747,7.613634,1.0895597,1.1540768
0.25124386,0.14915614,0.5541401,0.076060675,0.24364696,0.47007832,0.34511226,6.676164,0.4941322,0.6738808
0.27831456,0.1418707,0.6019575,0.13831553,0.24509579,0.5553497,0.6676062,6.5100284,0.5911935,0.80743605
0.28382125,0.21145679,0.8533899,0.4613679,0.61303085,0.5913493,1.1639751,7.621133,1.1345468,1.1319954
0.12427826,0.23443806,0.874429,0.46267065,0.39918387,0.34310433,0.948808,7.401859,0.79872197,0.946259
0.26317307,0.34461796,0.97694767,0.600366,0.68028426,0.6084109,1.2738419,7.901484,1.2244471,1.2652589
0.2194853,0.18339625,0.8308415,0.43118745,0.52008855,0.5488816,1.104387,7.6732206,0.8521185,1.0412663
0.19990283,0.36377642,0.9914635,0.62583256,0.69296604,0.60529363,1.2892811,8.091717,1.1472449,1.2739445
0.26141912,0.11749228,0.620284,0.1483194,0.5140231,0.46427092,0.9583942,7.052907,0.8581576,0.8141757
0.15653728,0.18231927,0.8376655,0.4356517,0.60910183,0.4136752,1.1582863,7.267539,1.1220332,1.1076592
0.19624323,0.09167732,0.67169344,0.23532015,0.2527241,0.41557556,0.69022226,7.0691113,0.52465,0.763213
0.07074553,0.20601535,0.8544679,0.45552662,0.5518032,0.3892717,1.078825,7.314032,0.8196126,1.0067272
0.20916796,0.11436001,0.6184425,0.16650105,0.4288145,0.51080984,0.9315143,7.12888,0.71044433,0.83660465
0.26268694,0.11760992,0.7571388,0.33594388,0.2840299,0.4885961,0.75306123,7.591993,0.5692342,0.7530003
0.2399554,0.11825281,0.7630319,0.35188583,0.57607585,0.5766751,1.0964988,7.3921185,0.9919671,1.0237068
0.1724268,0.08556493,0.74579525,0.33593005,0.3521608,0.47754684,1.0780864,7.312344,0.8721454,0.99776626
0.15572175,0.10159301,0.6397899,0.18653238,0.43433902,0.3552971,0.8401209,6.934885,0.6402497,0.80471945
0.036496717,0.2603194,0.87287533,0.3773024,0.47450185,0.29959074,0.9935642,7.350496,0.9076305,1.0228734
0.14675543,0.29332903,0.92491275,0.42943525,0.35368115,0.37338302,0.86605525,7.069924,0.56764656,0.7480535
0.2502668,0.10385135,0.72244424,0.29865932,0.4123679,0.51832366,0.91090685,7.0093637,0.6698309,0.8395913
0.101674095,0.16958198,0.53510815,0.13551806,0.14821085,0.3778004,0.41756555,6.631285,0.42027318,0.6480435
0.12771505,0.15502295,0.80422485,0.40689418,0.57077914,0.4193963,1.0842522,7.339127,0.82932657,1.0092335
0.3424061,0.17369503,0.8254946,0.424959,0.500365,0.6477768,1.1483061,7.6597366,0.9375412,1.0851984
0.03967345,0.1236268,0.763235,0.31520322,0.57970154,0.3474003,1.0983441,7.134879,0.9879822,1.0248939
0.13792887,0.056252036,0.649635,0.23416993,0.27825734,0.34110415,0.9978561,6.199718,0.7858147,0.9073084
0.22616273,0.12869708,0.7838941,0.37275916,0.47090682,0.5232929,1.0052444,7.431561,0.7708778,0.9206273
0.28755745,0.09272203,0.6719848,0.23367715,0.31747332,0.5602267,0.84184235,7.153493,0.6950611,0.8866896
0.13809016,0.17433624,0.6713233,0.35078886,0.28556314,0.36070025,0.7419679,6.927269,0.76368153,0.9640108
0.15813373,0.08940215,0.7138221,0.283411,0.5516001,0.38806838,0.9934203,6.630225,0.7030323,0.8552727
0.24952802,0.16417146,0.81146055,0.4127034,0.5986382,0.5157068,1.1356429,7.3775725,1.0968586,1.0805477
0.27385733,0.15199278,0.80273646,0.40045673,0.5976465,0.53076637,1.1325125,7.519436,1.0891865,1.0702935
0.15921116,0.18790773,0.8347636,0.43474144,0.571374,0.4834602,1.1446946,7.2436504,0.9908826,1.1045219
0.22240363,0.09363549,0.5388619,0.09681892,0.19705522,0.46812013,0.5165577,6.33013,0.46435907,0.62295675
0.24943285,0.0905969,0.7040782,0.2802845,0.36772636,0.534558,0.8901852,7.2488923,0.70002246,0.8891551
0.15905666,0.120047696,0.77132183,0.35304895,0.45238936,0.44294566,0.9184517,6.75939,0.6709222,0.8699053
0.22573243,0.122520655,0.6152307,0.14654295,0.40159225,0.47324857,0.8629958,7.119688,0.6552958,0.7935033
0.24551353,0.08815607,0.73124254,0.30215538,0.55892766,0.49508902,1.0684218,7.2304173,0.9052188,0.982437
0.38077888,0.11232804,0.630474,0.17115146,0.24360928,0.64015657,0.8116025,7.196162,0.6861493,0.8522377
0.1181218,0.38723752,0.7246316,0.6431893,0.3065057,0.2832792,0.5161089,8.142503,0.3149853,0.5196188
0.12315093,0.12059064,0.7768007,0.37411427,0.20906422,0.39768896,0.7057257,7.105524,0.75169134,0.97451067
0.18819413,0.18913321,0.77407503,0.34553894,0.27658623,0.41965768,0.7633059,6.8870387,0.63852364,0.8132922
0.3146822,0.13125595,0.54742336,0.089197904,0.26675087,0.53018683,0.4168152,6.507494,0.55058163,0.73243654
0.23034553,0.0600447,0.7440833,0.3251176,0.5602699,0.9079643,1.0767325,7.888666,1.0184788,0.9894641
0.1848741,0.16888744,0.8182277,0.41521308,0.6007255,0.41822243,1.1443443,7.487089,0.90447,1.0355146
0.16536313,0.10531492,0.6518233,0.2010035,0.5249114,0.4265147,0.99193746,7.0248685,0.8346564,0.8828796
0.20851627,0.08387927,0.65109336,0.25024164,0.51776326,0.62607545,0.99213296,7.7162194,0.95194197,0.9103261
0.10457818,0.1580433,0.80219185,0.34728023,0.46365,0.30927488,0.8493143,7.1186543,0.6301669,0.8070737
0.07688519,0.17708798,0.821875,0.417821,0.60774696,0.41714638,1.1516565,7.299901,1.0234141,1.0921758
0.13194227,0.110221855,0.7539543,0.3289588,0.5702584,0.43440023,1.0889308,7.4310446,0.9766069,1.0064784
0.12094342,0.09639567,0.70703346,0.27527502,0.5497205,0.39791927,1.0449036,7.1839814,0.937857,0.95171726
0.2814935,0.14331034,0.5832417,0.089404814,0.2768081,0.51783353,0.688503,6.743286,0.6067079,0.76800543
0.11057512,0.2367877,0.88071674,0.48930946,0.6337259,0.37502876,1.1983327,7.345294,0.94160545,1.1082746
0.16499259,0.1171936,0.57059234,0.09412056,0.24690379,0.4138067,0.6092827,6.466425,0.41129762,0.61921304
0.19014594,0.1747774,0.823943,0.42179614,0.6062052,0.4454169,1.1466552,7.284806,1.1061813,1.0933003
0.1376251,0.21167654,0.855724,0.46253818,0.5173066,0.45036247,1.0335329,7.630496,0.78419936,0.97701466
0.1530184,0.2337506,0.8858154,0.48819897,0.5051277,0.4445953,0.99997056,7.4666104,0.7363261,0.93546265
0.123471886,0.17676996,0.8342236,0.4146166,0.5027801,0.3658016,1.1589957,7.1719227,0.91798085,1.0423808
0.08852407,0.11640363,0.5650979,0.120641045,0.4191709,0.31882563,0.7827828,6.469561,0.6181789,0.759451
0.25351492,0.090628475,0.76390815,0.35403252,0.50503933,0.6091453,1.107,7.2773385,1.0207849,1.0233027
0.17348121,0.13956134,0.7808816,0.3817532,0.57219315,0.5579043,1.1070001,7.5079494,1.0447412,1.0409487
0.26347777,0.10841383,0.6361023,0.18199337,0.5193068,0.47070777,0.9815337,7.12361,0.84565556,0.86280376
0.21258627,0.111266,0.7738893,0.35209683,0.587684,0.45591643,1.1077887,7.406021,0.8587038,0.98809314
0.17851222,0.104167685,0.74814534,0.3280189,0.57092464,0.48068538,1.0835428,7.3392015,0.95605326,1.0051831
0.17376246,0.13821378,0.79187083,0.38244674,0.44298008,0.43609998,0.9032502,7.256928,0.68084383,0.85554284
0.15587606,0.22809792,0.8725019,0.47974,0.62799597,0.5293339,1.1885237,7.620756,1.059019,1.1494129
0.42258078,0.4833659,0.37974975,0.42182866,0.15094526,0.6252729,0.6118963,8.297274,0.52673465,0.53082436
0.2654972,0.07690081,0.6283825,0.23911327,0.47564083,0.40559137,0.9622546,7.1489244,0.950728,0.91275555
0.13567674,0.12565252,0.769446,0.24835043,0.28386447,0.3286417,0.7703748,6.624662,0.6725067,0.8081039
0.19295783,0.10395231,0.7472547,0.3330794,0.56058514,0.5542329,1.0754151,7.5144563,1.0169711,1.0052222
0.23752224,0.13065334,0.55420566,0.07290777,0.0761437,0.40909028,0.4047669,6.2317176,0.30213997,0.52808446
0.1498796,0.12981671,0.5672334,0.096593335,0.48773164,0.3375283,0.889748,6.163268,0.773024,0.7174055
0.24149734,0.2484752,0.89280593,0.4490778,0.4891528,0.49841678,1.1406031,7.2219167,0.9082103,1.028258
0.2200994,0.097573206,0.7103652,0.27998406,0.44514382,0.4949857,0.9637966,6.859406,0.7132163,0.89203984
0.18930115,0.18168919,0.8292658,0.43025392,0.60763377,0.5090038,1.1536615,7.4918103,0.9928255,1.1022649
0.20773688,0.18283378,0.8327353,0.4317671,0.61513436,0.5946082,1.1589504,7.638115,1.0335727,1.1033964
0.19855487,0.09802908,0.6558691,0.21021798,0.40501952,0.4461285,0.8456232,7.110352,0.6993212,0.89191645
0.23268023,0.19274682,0.8353883,0.4037897,0.60801446,0.5053452,1.1515378,7.4006343,0.92518187,1.0400933
0.20547734,0.0547485,0.69248027,0.27934211,0.30589446,0.47928882,0.6642045,7.171754,0.6126177,0.86860967
0.048346188,0.1253904,0.77898264,0.31180534,0.46405527,0.29281023,1.0735041,6.729707,0.78498566,0.89353794
0.16585635,0.121863104,0.5430827,0.10241925,0.48336947,0.35838798,0.8388567,6.3797436,0.6812544,0.6282028
0.15325585,0.089588635,0.74210817,0.33964795,0.5577115,0.37789133,1.0662224,7.1481857,0.78493893,0.9564445
0.3136574,0.11028024,0.7545631,0.3463071,0.25909245,0.62367237,0.8559062,7.504077,0.6682831,0.96105283
0.2726857,0.12696251,0.43963322,0.111142725,0.3706399,0.59482795,0.7601923,7.6519413,0.74042404,0.73862606
0.22868885,0.28699225,0.9314681,0.5351046,0.6587077,0.49653804,1.236328,7.687805,1.1912218,1.21424
0.16275991,0.21351908,0.86449283,0.45529446,0.6138921,0.4051339,1.179805,7.4132414,1.1427503,1.1337405
0.13616009,0.09241811,0.7322982,0.3117323,0.550904,0.5254839,1.0653895,7.489516,1.0127951,0.9895505
0.18998955,0.09301982,0.70343214,0.27799073,0.5468826,0.44051364,1.0414977,7.107632,0.83184755,0.95376027
0.06540161,0.31728363,0.96131134,0.45278287,0.34501415,0.2621438,1.0881522,7.2639494,0.7821395,0.9150079
0.113414414,0.18903485,0.8497244,0.3490644,0.615983,0.31866458,1.1704057,7.5941415,0.90310043,1.001044
0.2531984,0.11133241,0.64606786,0.20137917,0.44667795,0.512331,0.9930459,6.9101806,0.77877367,0.8765852
0.17862792,0.15847416,0.80974877,0.40744108,0.3985455,0.42996925,0.8551984,7.237604,0.67852396,0.8839694
0.15511902,0.22352405,0.8680402,0.42940083,0.62751055,0.507612,1.1884184,7.361344,1.0057472,1.1135703
0.279132,0.073925845,0.71022147,0.29482648,0.26749882,0.55467004,0.8106579,7.4383307,0.6376228,0.91637707
0.21344985,0.16807376,0.8141056,0.4137212,0.4249224,0.46658975,0.8763478,6.9786177,0.6018681,0.812037
0.11955494,0.16122156,0.7213482,0.3863897,0.23532674,0.3262963,0.6803887,7.048493,0.72413045,1.000692
0.24748945,0.08776575,0.66540766,0.22628082,0.48679352,0.53125876,1.0077077,7.2460647,0.81015366,0.9097493
0.040432744,0.094001435,0.7326173,0.30532926,0.5604133,0.31346506,0.95663184,6.995415,0.6999745,0.8654026
0.18640539,0.2433929,0.5691682,0.12084443,0.35404062,0.80093455,0.8882651,7.754031,0.78542495,0.747557
0.26650548,0.0858209,0.7059199,0.27310815,0.5067848,0.5469626,1.049477,7.331782,0.82661694,0.95065176
0.1809886,0.16494948,0.8148415,0.39695764,0.4408493,0.458653,0.9442366,7.1076283,0.67364466,0.8645739
0.16730785,0.17231694,0.8229123,0.4248678,0.6035,0.5108887,1.147311,7.5042644,1.0291835,1.0919697
0.24489735,0.09901159,0.6514966,0.20919818,0.46426085,0.55058223,0.99619704,7.4317374,0.8293486,0.8877208
0.07800147,0.21075997,0.8621075,0.4113117,0.62564933,0.33099043,1.0542406,7.2247934,0.771175,0.93293923
0.1813704,0.10894692,0.6368363,0.17705432,0.52229273,0.3999561,0.97857654,6.8040447,0.8936501,0.8518395
0.29364964,0.15270016,0.5688139,0.083997145,0.1303455,0.52799296,0.42239037,6.793718,0.3547779,0.6141338
0.17420758,0.096118264,0.73267055,0.30931374,0.5652241,0.43357867,1.0715244,7.206325,1.0165403,0.9879186
0.11191438,0.108147405,0.6476743,0.18054591,0.527188,0.34394774,0.9885724,6.962715,0.86807185,0.85808825
0.074216604,0.101058885,0.5727377,0.16384219,0.47267744,0.33549443,0.8503835,6.0134964,0.6836057,0.62387615
0.09845972,0.10932049,0.6812948,0.17200118,0.49125025,0.33997223,0.962693,6.6025214,0.6506594,0.761975
0.39887053,0.15125531,0.58380264,0.35403487,0.22653724,0.6756726,0.8245931,5.5194516,0.7219908,0.6891007
0.31200376,0.06405237,0.5774427,0.11720276,0.30171633,0.6426937,0.52509874,6.6720805,0.5706046,0.7978045
0.18436293,0.22336079,0.8711129,0.47465533,0.6317584,0.5639148,1.1902225,7.6392283,1.0343419,1.1442684
0.28285533,0.10457201,0.7508235,0.33304396,0.576601,0.53416723,1.087213,7.381885,0.905506,1.0072347
0.072168864,0.17378834,0.8313521,0.30183682,0.5626856,0.29008842,1.1606508,7.6332846,0.903804,1.0055393
0.14498897,0.11874775,0.7656412,0.360821,0.57651895,0.50664234,1.098629,7.2952933,0.9865525,1.032686
0.08811428,0.09634372,0.7148459,0.2902876,0.5152031,0.39832035,0.9501906,7.0986342,0.72678447,0.884164
0.08983202,0.16652323,0.85840124,0.3148729,0.36910057,0.31940818,0.9480463,7.073649,0.74323535,0.86658305
0.27393717,0.1132823,0.6313346,0.17383909,0.30344784,0.47402924,0.78069603,7.0487394,0.59085774,0.76640457
0.38035133,0.25344667,0.8048279,0.50442785,0.24780357,0.76613057,0.5590051,8.074455,0.65173954,0.93852115
0.1317176,0.119755395,0.7589719,0.35651353,0.57732767,0.38158274,1.0940027,7.2935514,0.85141295,1.0050464
0.14076872,0.10606836,0.74629885,0.32743037,0.44219953,0.4330276,0.89589685,7.3584123,0.71578985,0.8941207
0.17497902,0.20372273,0.85604405,0.40673125,0.44057527,0.4180544,0.87535906,6.935197,0.6039502,0.7972665
0.18096325,0.118397884,0.62342256,0.16242528,0.5186903,0.44583496,0.96788937,7.141379,0.7420171,0.8426589
0.22856973,0.15416548,0.7987926,0.39991635,0.4520721,0.5455566,1.0077398,7.4524565,0.772391,0.94128364
0.14531235,0.19741786,0.84935397,0.35722572,0.4643474,0.35905823,0.85685265,6.8352265,0.5909605,0.76820326
0.19999595,0.22054535,0.86868703,0.4797298,0.48655653,0.490681,1.0238659,7.7680626,0.7483403,0.97077596
0.24640884,0.15556797,0.81222147,0.41616175,0.5182992,0.6621122,1.1360633,7.6588807,0.9931338,1.0856402
0.19168949,0.14908819,0.7945868,0.39242625,0.5839854,0.51152253,1.11615,7.535407,0.9925444,1.0609384
0.16634986,0.13089034,0.7769084,0.37045363,0.49215263,0.47133055,0.98202837,7.2721014,0.74419725,0.91403496
0.052471135,0.20364314,0.85426617,0.31882223,0.46242607,0.26079047,1.0675073,7.0488377,0.8475841,0.9738647
0.18764436,0.21747874,0.8643287,0.4718889,0.42239842,0.4351747,0.88539946,7.517737,0.6554788,0.8596869
0.259619,0.40865612,1.0389473,0.65546095,0.62457234,0.6907191,1.3316315,8.150069,1.0717232,1.2275791
0.090799026,0.094024256,0.69247544,0.26346427,0.54934573,0.318885,1.0373822,7.0405483,0.7817664,0.91969126
0.21653877,0.19719793,0.8448352,0.4465932,0.61094344,0.6202356,1.1629598,7.653864,1.1318892,1.1217468
0.3047386,0.28143474,0.92032224,0.5377218,0.6508595,0.6137327,1.2269372,7.955695,1.2008723,1.1991565
0.1046458,0.11285319,0.71478355,0.28196245,0.55639344,0.31861758,1.0570498,6.5962796,0.849705,0.9595517
0.13444814,0.10661093,0.6578676,0.21545766,0.53541726,0.43483615,1.0045664,7.3463306,0.9316662,0.8917604
0.1663062,0.09507326,0.66890115,0.21706998,0.40304238,0.3613736,0.8027523,6.837003,0.5888194,0.7600901
0.21415192,0.07671145,0.7123158,0.28213447,0.19935215,0.44611818,0.6327982,7.135584,0.42313084,0.6677293
0.14729175,0.1703395,0.824887,0.4054649,0.50218105,0.42237157,0.9508176,7.2286396,0.70505553,0.8706681
0.2606648,0.060072485,0.4118669,0.0936864,0.31939527,0.55197024,0.3793056,5.559354,0.5836789,0.634389
0.23347402,0.10646771,0.37713966,0.3276451,0.08021199,0.7643607,0.53440773,6.587375,0.2969015,0.5594158
0.2020984,0.10252511,0.64507127,0.2035026,0.51232487,0.47091866,0.9913751,6.8077016,0.77497566,0.87733746
0.12530088,0.15682572,0.80332285,0.40426356,0.53844845,0.473357,1.0833797,7.545966,0.85063875,1.0504298
0.1378967,0.09828897,0.66639996,0.17420559,0.5347944,0.37587065,1.0041153,7.165332,0.87813133,0.8706598
0.25359762,0.112260096,0.7196828,0.27823508,0.34369555,0.4359437,0.80803365,6.696858,0.5529073,0.7201772
0.27675512,0.06140707,0.5399616,0.0784083,0.24814153,0.5032788,0.34678626,6.4468784,0.53644866,0.6997725
0.2535068,0.09888388,0.70994717,0.28899363,0.38990748,0.5774915,0.92013204,7.329335,0.7640227,0.9476967
0.22169106,0.34975392,0.9876314,0.54746234,0.64432853,0.4947597,1.2874705,7.861083,1.2041233,1.2740712
0.15279117,0.12184158,0.6255746,0.15180993,0.5159257,0.38765433,0.9641072,7.073995,0.7359628,0.81887835
0.18971407,0.12639035,0.7750917,0.3667873,0.58501595,0.49714595,1.1072913,7.3750014,0.9611599,1.0399638
0.12966867,0.11465567,0.7554432,0.27666378,0.50193435,0.35995817,1.0583088,6.814605,0.89660776,0.9870883
0.22284041,0.39403662,1.0186399,0.65585095,0.5803521,0.4769217,1.1378398,7.768009,0.8697095,1.0609574
0.53274757,0.19418804,0.50342107,0.044342283,0.4567406,0.9298854,0.8429081,7.54112,0.7474366,0.6994257
0.06299954,0.104854345,0.7225269,0.29864615,0.3910069,0.27263775,0.77594584,6.936562,0.49098226,0.6367589
0.14835466,0.18954875,0.8372043,0.40608653,0.61464816,0.36299407,1.1475277,7.4317718,0.85783964,0.9959139
0.25899476,0.12955749,0.7765834,0.3676304,0.25115556,0.6044609,0.73535645,7.563101,0.62886435,0.9531267
0.07955305,0.10344881,0.73364675,0.3134621,0.5622276,0.3547612,1.0756751,7.1572323,1.0207475,0.98928505
0.20095338,0.2664683,0.5128599,0.16848533,0.16920337,0.7552196,0.5977053,7.5399675,0.4700424,0.7348383
0.18683626,0.097402014,0.7320339,0.30673003,0.56498677,0.4820387,1.0709054,7.1065116,1.0119778,0.9810072
0.14746274,0.2502183,0.68039954,0.3632386,0.17782691,0.37010917,0.47911015,7.1452208,0.26707444,0.5129908
0.19925272,0.10451044,0.7458729,0.32581386,0.5677529,0.41686425,1.0778062,7.331795,0.8577781,0.97240317
0.2205051,0.2038374,0.85280246,0.45928606,0.62330514,0.6572241,1.1739447,7.6347857,1.1045203,1.1267922
0.20011756,0.111345254,0.71508783,0.27795815,0.37176356,0.47857627,0.9848041,6.848527,0.7320672,0.8708009
0.127665,0.10054564,0.7008806,0.26895523,0.55243,0.40271372,0.99845797,6.8528495,0.72111374,0.85346633
0.12792501,0.23964314,0.9347091,0.3632688,0.6157465,0.34910244,1.2234821,7.536394,0.9152533,1.0348213
0.096372165,0.10152963,0.74138784,0.32209358,0.5689587,0.43009943,1.0793979,7.518983,1.0246696,0.9970903
0.20099106,0.08477271,0.7226401,0.32556608,0.2828139,0.4971261,0.77787757,7.3446712,0.79743385,1.007104
0.228963,0.13617358,0.5293651,0.0819571,0.28434703,0.40527484,0.356027,6.6843357,0.48202237,0.6674567
0.17158343,0.23061353,0.8751673,0.48384336,0.49992394,0.509317,1.082769,7.474242,0.84335935,1.0612105
0.13270128,0.13664025,0.7728488,0.29340422,0.3520684,0.3994744,0.7844217,6.7860804,0.52121,0.72107196
0.16692717,0.1369296,0.79795736,0.39309612,0.5880822,0.58992165,1.1256877,7.670184,1.0800416,1.0622321
0.23550402,0.09178389,0.6692555,0.23132063,0.2898849,0.42753953,0.7510853,6.6948743,0.54417646,0.78003967
0.071617216,0.20972916,0.73306286,0.35045975,0.3267065,0.30916113,0.81025094,6.958361,0.73654354,0.85754824
0.24537653,0.21022989,0.8530705,0.46120715,0.5511159,0.5170993,1.1190693,7.533892,0.8577233,1.0103503
0.29122856,0.103570886,0.7086305,0.29506817,0.26508817,0.5742891,0.775946,7.2343864,0.6463457,0.93568575
0.2675595,0.13241878,0.57874554,0.10680866,0.26299056,0.48583883,0.70124376,6.6321683,0.5908508,0.78164417
0.06331135,0.15114494,0.7999969,0.39187908,0.5966677,0.3362325,1.126857,7.3841295,0.96675855,1.0647132
0.19884078,0.09626697,0.71403384,0.29471323,0.5303611,0.46716797,1.0518856,7.492356,0.79974854,0.9547658
0.16810298,0.09425978,0.715024,0.2840475,0.54763305,0.42858508,1.047682,6.9888425,0.9095111,0.95932084
0.23418331,0.10316494,0.7287676,0.3030618,0.437769,0.5463662,0.97111005,7.233766,0.7472627,0.9213417
0.059839442,0.16156134,0.81666553,0.40748584,0.60711193,0.3972583,1.1480595,7.1504083,1.0082651,1.0804931
0.07878092,0.1384034,0.7855567,0.2815876,0.5928744,0.33119026,1.1191652,7.528129,0.9591225,1.0425563
0.30062538,0.04367866,0.6392469,0.21907075,0.4128426,0.6573736,0.9562623,6.5225935,0.84305626,0.9013165
0.13137475,0.1331227,0.7741326,0.33401257,0.11780436,0.34241655,0.5736509,6.809807,0.60416394,0.9956314
0.24614538,0.083182834,0.6787701,0.23657466,0.3913086,0.57322854,0.9348475,7.3591657,0.74019355,0.9111594
0.24830252,0.33526403,0.36337706,0.4029936,0.12573977,0.72326493,0.30643567,7.5723076,0.19312249,0.5004516
0.26032358,0.2015271,0.8446557,0.45136446,0.42086884,0.62722856,1.0244126,7.5297294,0.8191475,1.0006273
0.29262176,0.10388119,0.5446457,0.1606794,0.34565037,0.47423887,0.43625134,5.518483,0.52906847,0.6094142
0.095023915,0.11156986,0.62452906,0.15099974,0.51451254,0.3895274,0.930956,6.903024,0.62219554,0.7524096
0.268844,0.120246135,0.73882294,0.20005533,0.3441309,0.57903236,0.890252,6.581366,0.7274537,0.8349241
0.19216132,0.307314,0.95221126,0.5268061,0.6608141,0.5116563,1.2411952,7.6854897,0.95624924,1.1005149
0.1658723,0.09038085,0.7087373,0.2742172,0.5541396,0.37588474,1.0509032,7.0996695,0.82173294,0.9423765
0.1139141,0.2025102,0.86350435,0.32530674,0.30741173,0.34324846,0.9397094,7.112053,0.6960868,0.8390236
0.32034874,0.12248368,0.45999515,0.15104,0.41823933,0.8368352,0.7990155,6.7099175,0.736879,0.6731454
0.18130136,0.090746775,0.713949,0.2983846,0.45356044,0.46585596,0.9325528,7.092151,0.6830959,0.8706717
0.2005333,0.11342638,0.6413704,0.18285139,0.4885118,0.473344,0.9810003,7.1682816,0.7323497,0.86229765
0.06378746,0.12972301,0.78541917,0.3491928,0.41048744,0.37271088,0.9867612,6.8384304,0.726887,0.8776618
0.16141686,0.12431338,0.7772413,0.36262503,0.5836481,0.40856874,1.11028,7.2707415,0.8615808,1.0130558
0.3018114,0.11743951,0.61977166,0.19674584,0.4037469,0.7490798,0.97236156,7.613779,0.88384813,0.83450866
0.19686083,0.6429739,1.0092897,0.69855577,0.511791,0.504881,1.0273287,8.380834,0.7560914,0.96297437
0.22568937,0.11118884,0.65965694,0.19397369,0.4475165,0.42701995,0.8738859,7.0646005,0.61231655,0.77466357
0.09277607,0.09731385,0.67417073,0.20040956,0.53835547,0.32550308,1.0158827,7.2416506,0.8016683,0.9013431
0.1476841,0.10682987,0.74544334,0.2878657,0.5698445,0.41438526,1.0813726,7.101513,1.0232053,0.994482
0.23671173,0.14828001,0.5818727,0.12020846,0.26030383,0.52647704,0.57456285,6.8372025,0.55142826,0.79424375
0.15325446,0.12198825,0.63196987,0.15999912,0.47516277,0.44643506,0.938946,6.6714725,0.70548606,0.8362167
0.15810972,0.1595268,0.8197432,0.25875497,0.43654448,0.3897607,0.92770636,6.9038153,0.6417488,0.80314547
0.26388118,0.44136575,1.0667366,0.70057315,0.58909327,0.6247205,1.2835453,8.307934,1.0206792,1.2148482
0.17440209,0.09770262,0.7366023,0.32364944,0.5646717,0.47728726,1.0727518,7.273077,0.98312056,0.9953922
0.0877006,0.091479465,0.7015475,0.27242157,0.5498897,0.3022316,1.0411756,7.1415343,0.90717214,0.95040804
0.15964891,0.08487109,0.71012884,0.3212824,0.2696891,0.45256966,0.90198356,7.00722,0.8962302,1.003257
0.28812674,0.19321506,0.84097457,0.4455943,0.51873374,0.5765162,1.1531314,7.9172754,0.9022859,1.0631472
0.24130633,0.17100304,0.821955,0.42656112,0.4934108,0.55248857,1.095499,7.7517843,0.85547066,1.0274702
0.32065672,0.14344835,0.5783347,0.12099921,0.23857623,0.58090883,0.41548574,6.672663,0.57754856,0.7742101
0.2770987,0.29217422,0.46307498,0.11794494,0.4058046,0.7347048,0.81033915,7.608202,0.73571324,0.66415316
0.18052995,0.09663036,0.7307468,0.31828186,0.55455464,0.52590656,1.0634356,7.504671,0.9919681,0.9893452
0.09753428,0.2201385,0.9081981,0.35834122,0.42710936,0.3019822,0.97100496,7.159754,0.8485807,0.9808096
0.14203553,0.14859161,0.8069748,0.39791209,0.5962124,0.5721291,1.132239,7.532247,1.085869,1.0723212
0.14110276,0.15276572,0.80456245,0.3944705,0.5940222,0.44112113,1.129547,7.5166254,0.98532516,1.0703812
0.17696507,0.10676066,0.6793187,0.28144956,0.29368523,0.40867192,0.90052575,6.9852138,0.6253191,0.80330724
0.13865727,0.13959551,0.7886699,0.38372198,0.5076345,0.4368395,0.98972124,7.3352165,0.74332124,0.9245184
0.13076141,0.24495956,0.88594246,0.36224842,0.38951075,0.38286322,0.9490723,7.2502127,0.6953851,0.8562509
0.2223883,0.12584591,0.5850425,0.117106095,0.42486542,0.4563352,0.87610734,6.6137686,0.66176486,0.77177453
0.22460395,0.22520196,0.86840105,0.47576714,0.4929657,0.57426006,1.1099995,7.3442054,0.8782606,1.04512
0.29871202,0.10956448,0.6238664,0.17896824,0.25116602,0.5375188,0.7823346,6.828062,0.6114545,0.8590026
0.10913062,0.108594015,0.75025046,0.32495806,0.5729116,0.31198326,1.0848964,6.9615045,0.8233201,0.9354445
0.2231755,0.10397296,0.6502289,0.19682278,0.40684348,0.4808701,0.88312626,6.7218323,0.68049103,0.8281589
0.20470163,0.13137035,0.77995163,0.36535284,0.50296205,0.5228153,1.0470138,7.431311,0.8011922,0.9491956
0.14214835,0.13662979,0.6069853,0.1455717,0.49834716,0.3633488,0.9004087,6.7358356,0.6436447,0.7804605
0.2631765,0.15404016,0.5394774,0.056623787,0.28935805,0.529488,0.50902706,6.3300214,0.5435215,0.71503717
0.2820719,0.13847142,0.585561,0.12360172,0.24446316,0.5447642,0.47866783,6.7837844,0.50721234,0.7335231
0.1651397,0.12596332,0.7754875,0.36609602,0.5771691,0.4518392,1.1059735,7.2693653,1.0583454,1.0381188
0.17048864,0.24293059,0.8885764,0.49879023,0.641661,0.54016477,1.2062962,7.4471717,1.1085757,1.1650748
0.17110826,0.07800283,0.40091994,0.1484375,0.2913415,0.5833599,0.7648233,6.436104,0.6934995,0.62809974
0.19441834,0.11014179,0.7527713,0.33476087,0.5715042,0.5278706,1.0858798,7.248723,1.0364374,1.0119447
0.11873489,0.14757892,0.57298386,0.09517853,0.4151436,0.3237081,0.76167744,6.5838556,0.6310759,0.7643826
0.20331164,0.13033177,0.7775581,0.3548414,0.58916634,0.44497234,1.1118907,7.3332605,0.9006229,0.9990873
0.28680462,0.11167239,0.74577826,0.20396134,0.48856106,0.5457786,0.7393665,6.2843504,0.45280668,0.69022274
0.2431689,0.085442245,0.664067,0.22517125,0.5211894,0.46756417,1.0168766,6.501155,0.8051577,0.8868062
0.10875357,0.22593339,0.86705387,0.42128345,0.5116768,0.35089406,0.9182318,7.2448096,0.66974646,0.8378167
0.22054185,0.09754877,0.7231714,0.2940329,0.42749143,0.4553387,0.88193595,7.0488524,0.6315375,0.7918022
0.28435147,0.20769008,0.8565664,0.463669,0.52239776,0.5914887,1.1431174,7.5117726,0.9088486,1.0629556
0.12365615,0.17538883,0.84979486,0.27942148,0.6042332,0.33395845,1.168829,7.173508,0.89144856,0.9769814
0.19483621,0.08598743,0.7130252,0.28234902,0.4176382,0.50108,0.9252547,6.8659534,0.6991503,0.8908022
0.11149038,0.11518057,0.66108376,0.2217211,0.5052843,0.33871076,1.0131013,6.995119,0.8651103,0.90324074
0.14917344,0.11067517,0.666768,0.22682911,0.5230543,0.36788383,1.0070859,6.387333,0.82373965,0.90071774
0.18584804,0.1540742,0.8037418,0.39385325,0.5973855,0.43002304,1.1281265,7.432306,0.90903485,1.064594
0.16572228,0.104160815,0.6592904,0.21032342,0.5143003,0.45083234,0.99965864,6.9115157,0.78271407,0.8898289
0.11985242,0.1402719,0.78515685,0.36504862,0.59366846,0.46684778,1.1194905,7.240571,1.0386894,1.049819
0.2323882,0.11285742,0.5965404,0.12984976,0.39448878,0.42846093,0.83591485,6.52948,0.57791436,0.760426
0.07441878,0.11169587,0.7378571,0.21849917,0.5607295,0.3149157,1.074338,7.2014933,0.8883321,0.9599695
0.38443714,0.10541448,0.38568872,0.14164113,0.36319396,0.73942435,0.6710619,5.902256,0.5938066,0.56648403
0.17654546,0.11675335,0.7886545,0.37578374,0.2923443,0.42380235,0.74212,7.1450763,0.60573477,0.82644284
0.20790957,0.160738,0.5631729,0.076002665,0.18921639,0.48574498,0.52572155,6.6966577,0.46109343,0.69473726
0.19771373,0.117701106,0.6005516,0.1311042,0.50836223,0.4426381,0.9366507,6.6030827,0.72181135,0.78304696
0.22752942,0.1248941,0.6016354,0.13688518,0.25416154,0.4153817,0.6815047,6.6556573,0.48603967,0.6988632
0.18066593,0.115707204,0.7724146,0.35381192,0.502837,0.47892955,1.0040877,7.1153235,0.75753427,0.90901846
0.20653476,0.12019854,0.55780697,0.09244133,0.16048713,0.49090174,0.52314407,6.4167895,0.43294635,0.6827171
0.19906783,0.09321185,0.7367625,0.3075544,0.55194044,0.44988343,1.0471938,7.2901845,0.78601116,0.91716754
0.14233878,0.34108394,0.984062,0.4894086,0.4174131,0.43895757,1.0037532,7.607497,0.7298548,0.9166661
0.10148327,0.11090973,0.74194926,0.2815893,0.5654168,0.3403961,1.0304396,7.633842,0.75381875,0.895118
0.09872244,0.14280036,0.79485166,0.38081244,0.5866396,0.34203216,1.1205316,6.978769,1.0732943,1.0519303
0.17955387,0.11171081,0.6861698,0.26187813,0.29176164,0.3987017,0.5060191,6.718795,0.24245316,0.4602335
0.14580563,0.16827649,0.82503694,0.41851828,0.6092551,0.3718755,1.1514131,7.3826995,0.8971931,1.0286107
0.21463534,0.27142465,0.91116655,0.49430537,0.64906925,0.5637603,1.2235885,7.8660846,1.0994115,1.1915809
0.053349804,0.091304675,0.6818125,0.22392367,0.53401697,0.3117138,1.0203722,7.341004,0.95055294,0.91424286
0.15225454,0.10093613,0.7493057,0.32358682,0.57026297,0.3730125,1.0859159,6.999574,0.81561506,0.9308925
0.11616216,0.17433897,0.8428611,0.29756007,0.34872615,0.37286893,1.123346,7.2009277,1.0781031,1.0921298
0.19015318,0.14756761,0.52715087,0.06360602,0.23924038,0.42803302,0.65061367,6.501957,0.5033697,0.7047487
0.25274757,0.10214536,0.7390001,0.3178257,0.34346828,0.5251758,0.7509005,7.3975224,0.6780725,0.88727355
0.23785405,0.086114876,0.72638005,0.3032718,0.37370363,0.5533568,0.9092057,7.287204,0.7298443,0.93791157
0.11624826,0.1959584,0.83998936,0.3662946,0.42426527,0.32591915,0.741828,6.9945855,0.46441516,0.62470144
0.2088806,0.12173979,0.761899,0.34912553,0.57143325,0.50543284,1.0983092,7.2677703,0.9746038,1.0220401
0.45243236,0.15596746,0.59347326,0.1740036,0.13751425,0.85136044,0.875688,7.9250154,0.68388075,0.8252443
0.24452354,0.09657606,0.66526526,0.21111602,0.2872003,0.5659078,0.63306886,6.712762,0.6092574,0.866051
0.15011962,0.056315575,0.68921655,0.26299465,0.27350157,0.37510052,0.7154785,6.561778,0.546927,0.7275423
0.21172261,0.15380937,0.8050809,0.40403554,0.5927841,0.5319726,1.1324795,7.380474,0.98105013,1.075554
0.26198933,0.12458542,0.77785397,0.3528061,0.39689398,0.4906187,0.8700357,6.874971,0.6103445,0.7973098
0.15011883,0.15514901,0.56427,0.14498582,0.22432153,0.44192818,0.6392778,6.9596033,0.49267724,0.73136365
0.18901736,0.13289146,0.7922622,0.3926683,0.46811187,0.4966381,1.0091841,7.282018,0.76159775,0.96190363
0.1685644,0.14668606,0.7999701,0.3184118,0.5729387,0.40496457,1.0533409,7.456053,0.78697765,0.922914
0.22887248,0.1320997,0.5838245,0.13550751,0.27330014,0.5170705,0.6676494,6.876059,0.6000007,0.8111255
0.23618773,0.16001178,0.8151548,0.40889728,0.60300976,0.4771671,1.141664,7.409169,0.8877422,1.0121722
0.15338148,0.17518888,0.8313573,0.27855194,0.58041507,0.38197678,1.1533021,7.3636494,0.8827041,0.9659069
0.28898892,0.12315727,0.774039,0.3658175,0.4671225,0.63121295,1.1000282,7.580777,0.8794344,1.0378332
0.2134451,0.35893157,0.9819903,0.62461233,0.68426317,0.6247549,1.2819343,8.070018,1.065893,1.2711402
0.1509746,0.17040107,0.82252884,0.3431127,0.38450435,0.39523533,0.8442077,6.7586474,0.5828952,0.7676831
0.16553481,0.19990332,0.8458536,0.4223692,0.4854169,0.42755476,1.0460385,7.1036215,0.7664037,0.93092436
0.09697988,0.2561397,0.8045044,0.5233742,0.27613288,1.2680136,0.6537446,8.441554,0.34971917,0.9837476
0.249927,0.12889422,0.5729724,0.11589662,0.25120446,0.4607055,0.69347763,6.699043,0.54404086,0.759612
0.016431743,0.24589022,0.5165097,0.3536289,0.23712729,0.4319919,0.5801792,3.3303442,0.432321,0.5980118
0.035969246,0.11484267,0.7554568,0.34754446,0.56986755,0.36139706,1.0932164,7.2540145,1.0222131,1.0178335
0.19524689,0.13077007,0.7756258,0.35981724,0.5823515,0.44553855,1.1077875,7.4067144,0.8317783,0.9703173
0.2631688,0.12716329,0.7776087,0.26345477,0.58599466,0.52573043,1.1114705,7.5684643,1.0568603,1.0292827
0.28165063,0.1490114,0.79810494,0.3899567,0.44160375,0.6017634,1.0651257,7.4264145,0.8620779,1.0308182
0.081788786,0.10928777,0.7762075,0.36631215,0.4020174,0.4122131,1.102864,7.5976562,1.0627923,1.0365063
0.1616949,0.31814513,0.96160644,0.4537712,0.41028643,0.41469365,0.9840179,7.39363,0.9317647,1.0559846
0.17108698,0.12790732,0.7704886,0.24314298,0.40140253,0.4148288,0.9156509,7.156061,0.7130557,0.83758426
0.21226616,0.10465862,0.650006,0.20133358,0.4256425,0.47868246,0.9347949,7.168092,0.6842309,0.8768302
0.2541838,0.0529059,0.72612756,0.3140419,0.22161783,0.69257075,0.8917059,7.6321034,0.6765016,0.98145235
0.05049598,0.10827299,0.80126774,0.24724154,0.48480305,0.30444235,0.80482507,7.10041,0.52718854,0.6734886
0.13975185,0.100343876,0.7326429,0.31259915,0.4364945,0.3875414,1.0554776,7.1748137,0.7649234,0.94215673
0.22121336,0.26329544,0.91191226,0.52276635,0.20687515,0.58875704,0.7815051,7.745703,0.5909985,0.90816945
0.17056417,0.101646975,0.73278785,0.291231,0.5674021,0.38664046,1.0721033,6.8529015,0.8283347,0.9287209
0.24917385,0.10843802,0.75747514,0.33796084,0.4970625,0.5360321,1.0660427,7.2551694,0.8107345,0.9645039
0.26074854,0.12637904,0.55957055,0.077367544,0.25434953,0.42913643,0.36541906,6.493714,0.4436236,0.63670677
0.14467065,0.14183709,0.7933589,0.38559136,0.56277895,0.403816,1.0479268,7.3532715,0.77587223,0.95188004
0.09742733,0.23030317,0.88204193,0.36961278,0.4469718,0.3299977,1.0821509,7.167657,0.7803205,0.91045636
0.15131177,0.07891749,0.7095797,0.31714272,0.39985913,0.48405194,1.0251186,7.6669345,0.94402224,1.0024263
0.23988563,0.11907057,0.6295239,0.17589514,0.51425195,0.46323627,0.97584444,7.218971,0.88838613,0.86574924
0.27663922,0.07963776,0.6559124,0.24076326,0.37378463,0.6921517,1.0020764,7.725675,0.8202583,0.90025806
0.2659883,0.13373025,0.56984156,0.07229696,0.35429004,0.4654534,0.8130619,6.568564,0.58094186,0.72305125
0.20254341,0.23458141,0.87785286,0.49280643,0.3907623,0.56012344,0.9448216,7.6256657,0.7234118,0.97074616
0.17214571,0.24195704,0.896129,0.37800002,0.44910064,0.40962052,0.9137718,7.086841,0.64072305,0.8118711
0.24621144,0.20275022,0.85529035,0.4045206,0.530988,0.51955926,1.1004639,7.4396477,0.84388477,0.98504925
0.26922575,0.089918025,0.6415562,0.21216087,0.51300263,0.6206283,0.98054683,7.46077,0.9202845,0.8735989
0.15391366,0.13414678,0.7967658,0.39187482,0.5927392,0.40235132,1.1272879,7.394916,1.079442,1.0567993
0.12426676,0.09837625,0.7220275,0.29935065,0.5484412,0.40584207,1.0693555,7.2064652,0.96689856,0.96752816
0.27720222,0.14163524,0.8026851,0.39493564,0.26843703,0.5290388,0.79426473,7.655045,0.62023485,0.8777787
0.16375522,0.13232872,0.5775104,0.114265114,0.49554703,0.41595057,0.9175483,6.798479,0.68777007,0.7692914
0.22386432,0.113936014,0.54918814,0.08012426,0.2288581,0.48054332,0.5578405,6.3119364,0.505705,0.6703074
0.2633788,0.099014,0.65571064,0.20313321,0.53135616,0.4884657,0.9983221,7.123927,0.81326735,0.8800734
0.19664672,0.16641295,0.8286281,0.42483667,0.3122972,0.5157873,0.828569,7.2807803,0.597733,0.86105627
0.12620062,0.19845974,0.8768857,0.3185604,0.6375807,0.37409392,1.1976216,7.642421,0.906734,1.0141168
0.17238589,0.13420008,0.78820604,0.37773818,0.5283892,0.42455825,1.0406498,7.41692,0.7894347,0.95731086
0.15506239,0.09266029,0.71554583,0.28391948,0.55174744,0.5105873,1.0513177,7.032234,0.9944456,0.96490514
0.12759994,0.12274423,0.61177254,0.15696628,0.50622195,0.46359077,0.9592824,6.9577866,0.7593288,0.8315292
0.11778317,0.34125096,0.97836673,0.47381124,0.6420202,0.33370316,1.0678703,7.306717,0.7806761,0.9266347
0.2124722,0.35777256,0.98793525,0.6143323,0.68810767,0.36818355,1.2842542,7.429377,0.99742866,1.2574155
0.19426523,0.32218868,0.95068896,0.5804422,0.66447526,0.5668365,1.2532133,7.8139315,1.1816325,1.2377269
0.27317008,0.11918064,0.5061211,0.100632146,0.17586058,0.5312148,0.2639141,6.165578,0.4255065,0.6067289
0.10993665,0.25241828,0.9054443,0.37556225,0.36303407,0.35839924,0.970642,7.1600685,0.7687992,0.899331
0.1674453,0.13283135,0.5932342,0.19169128,0.2743717,0.3820083,0.625992,6.7326765,0.37897953,0.6165895
0.16749349,0.12275783,0.7773962,0.31740686,0.5841062,0.38337424,1.0770726,7.273754,0.79994285,0.9202889
0.22244403,0.09288901,0.7294842,0.29574046,0.5566877,0.43974543,1.067683,7.2939405,0.8883339,0.9726118
0.14557223,0.19206281,0.88077706,0.31816462,0.39945018,0.35185578,1.0215404,7.123285,0.76325583,0.89562416
0.15996405,0.10806801,0.75508934,0.33791956,0.5635614,0.48899555,1.0868177,7.5067935,1.0137222,1.011063
0.25784734,0.0884288,0.7236208,0.29834902,0.48706234,0.5328393,1.0588131,7.3839316,0.8387367,0.9717966
0.3018529,0.17124824,0.8142605,0.4222422,0.3964149,0.7698405,1.0606251,7.6989756,0.90814984,1.0925704
0.19279975,0.115141235,0.62766534,0.17153828,0.2364537,0.43251938,0.6362863,6.534687,0.5208366,0.7563754
0.18577167,0.10177355,0.6537654,0.20417807,0.44237056,0.3660609,0.79529864,6.662048,0.5151264,0.6647881
0.13528402,0.11095057,0.71738833,0.3115284,0.5525935,0.5607684,1.055996,7.569382,1.0096117,0.9831156
0.25057822,0.103231944,0.65635914,0.21103299,0.3781908,0.52328795,0.8855249,7.056211,0.6833632,0.85282487
0.22066084,0.093186274,0.73545986,0.32089478,0.56297475,0.567046,1.0685712,7.660718,1.0270033,1.0007985
0.2656543,0.13735466,0.5911822,0.12680468,0.25757056,0.47313648,0.35654864,6.8507557,0.48490435,0.6867115
0.19286889,0.19780393,0.844527,0.45276892,0.6115687,0.55628747,1.163594,7.49976,1.117371,1.1185473
0.16996057,0.12995805,0.7835942,0.36961794,0.56837636,0.47839224,1.1105887,7.225614,0.9838502,1.0596654
0.22672857,0.05421901,0.68929887,0.27297106,0.43487978,0.5717443,1.0317284,7.2755027,0.8042538,0.94767654
0.15931147,0.08967109,0.7162039,0.28546336,0.26374465,0.41990042,0.96873486,6.5185523,0.69042164,0.8621142
0.14531025,0.18062711,0.82901186,0.43067956,0.6024635,0.46289912,1.15179,7.3067236,0.96800154,1.0881052
0.3223213,0.20094183,0.8470744,0.45509726,0.61538184,0.59711546,1.166119,7.820204,1.1295338,1.1197157
0.14233042,0.10508602,0.7438615,0.32223493,0.56689453,0.38614607,1.0337824,7.3486085,0.77295876,0.9132667
0.09968993,0.09141167,0.7081174,0.28233045,0.543684,0.42072183,1.047816,7.081083,0.9848358,0.95321417
0.22321817,0.076437466,0.69296247,0.25231907,0.36186352,0.48794398,0.8595811,7.2614875,0.6578317,0.8462
0.24069236,0.0898119,0.74196583,0.31694344,0.5680608,0.47628546,1.0757722,7.2390056,0.9044668,0.998163
0.21009573,0.09429013,0.6383001,0.19710542,0.51547885,0.5590833,0.9823114,7.352211,0.91110915,0.8746529
0.2689488,0.10592552,0.63444537,0.17618227,0.30492997,0.52459824,0.8194999,6.84004,0.6405607,0.8457729
0.10093895,0.1735371,0.81088096,0.4041397,0.27295882,0.30091688,0.7686003,7.141569,0.78527784,1.0044284
0.27415907,0.09238457,0.71259457,0.29517964,0.32163838,0.6374623,0.9262528,7.4620414,0.7443093,0.9720365
0.1362854,0.16864021,0.81975836,0.4162511,0.60217494,0.5512847,1.1434697,7.5619364,1.0602629,1.0913948
0.13598609,0.106185175,0.74814373,0.33523947,0.50103223,0.418526,0.97441846,7.2301145,0.71955264,0.89104277
0.26455054,0.0901299,0.68354595,0.24181263,0.5310123,0.5009516,1.0220802,7.07277,0.8945826,0.9232327
0.12521416,0.102287635,0.6574346,0.22257003,0.5194312,0.32181808,0.90212506,6.947527,0.6334186,0.7807505
0.14179899,0.1232695,0.7569465,0.34579554,0.57033885,0.3301546,1.0865421,6.8153057,0.7780145,0.93842036
0.2766375,0.09758054,0.68685174,0.27030194,0.29155666,0.54018104,0.7643525,6.654487,0.64521927,0.8459176
0.087195754,0.043994114,0.6474584,0.23367204,0.51068825,0.4237831,0.99444926,6.7228656,0.9522241,0.9151463
0.21764949,0.11973847,0.6078176,0.1436377,0.37482527,0.42329338,0.82584125,6.882682,0.5880939,0.7768586
0.28385255,0.07920699,0.6869319,0.26078883,0.3122779,0.64055485,0.9467993,7.408561,0.74294454,0.94018793
0.27436534,0.21783036,0.86894554,0.47581148,0.49270615,0.5890554,1.1264032,7.5537186,0.8844151,1.0481892
0.09213271,0.21882302,0.87141776,0.37373808,0.58050686,0.39092296,1.0215462,7.513222,0.7469601,0.90801185
0.33867186,0.13551542,0.53493816,0.06546976,0.24988458,0.5573679,0.4334546,6.312736,0.5550398,0.7225607
0.083882704,0.17456584,0.83799905,0.32828444,0.36591297,0.31863338,0.9127929,6.7114086,0.77077353,0.8908498
0.16261269,0.09993198,0.7021121,0.27536768,0.5438675,0.4164064,1.0423275,7.2271204,0.9831242,0.95181507
0.2663828,0.27430543,0.92092484,0.53096765,0.651531,0.6484372,1.2288563,7.77224,1.172874,1.2048069
0.181678,0.09192664,0.7075628,0.27337298,0.5502999,0.50038105,1.0458965,7.2275515,0.9876493,0.9515463
0.26986912,0.073385276,0.66511774,0.2278511,0.32637393,0.48041272,0.8123935,7.2685337,0.60006666,0.7974692
0.31504375,0.07118196,0.6550605,0.23086566,0.38516942,0.68375605,0.997473,7.190141,0.82198894,0.9017516
0.21513939,0.09736529,0.6719433,0.22797401,0.4061875,0.48496935,0.89187443,6.7989564,0.6962718,0.8658146
0.17814445,0.13418055,0.5619608,0.08178383,0.28712514,0.36757088,0.66380626,6.5817785,0.51379067,0.7047983
0.27942148,0.13410945,0.52598864,0.08955403,0.26934853,0.5614281,0.5631858,6.180415,0.5534913,0.63208
0.06604445,0.12310693,0.7764914,0.2286559,0.3757685,0.2790545,0.97528505,6.726679,0.6709551,0.78199816
0.17472908,0.1575689,0.7970147,0.39954388,0.42628938,0.3998996,0.876424,7.164038,0.636706,0.8409762
0.17877564,0.08402695,0.6886069,0.26330587,0.54662275,0.46475202,1.0315437,7.289612,0.95453006,0.94056934
0.16775225,0.11531917,0.7702129,0.35484242,0.5348942,0.5481282,1.1003822,7.2947187,1.0506661,1.0301347
0.23167835,0.15515055,0.80413115,0.39850512,0.58898884,0.5275058,1.1293087,7.327619,1.0853169,1.0711437
0.1396149,0.13188837,0.7815182,0.3743678,0.5633786,0.37766603,1.1161413,7.0077634,0.91674906,1.0441874
0.02258411,0.093960844,0.7099354,0.2809107,0.5529315,0.30366167,0.97366697,7.006283,0.7103247,0.8609951
0.22687787,0.15373184,0.8097043,0.40590858,0.43581885,0.5329533,0.9722787,7.4796143,0.7388861,0.92478126
0.21972907,0.031485625,0.549324,0.08569023,0.18032922,0.4685187,0.52612025,6.2578483,0.46085784,0.6756482
0.13283482,0.11133241,0.7557198,0.2500434,0.5767639,0.34761077,1.0845549,7.16723,0.7894142,0.89716876
0.217814,0.1276741,0.77225965,0.2555694,0.38067216,0.43156096,0.8698351,6.8310466,0.6015298,0.77243745
0.12416328,0.12073291,0.7492679,0.31179157,0.5684202,0.36665678,0.9974076,7.026475,0.7122088,0.8384985
0.26089486,0.113367505,0.76168996,0.3494344,0.57616544,0.51675856,1.0917302,7.489423,0.8986256,1.0268003
0.14124902,0.117624104,0.6499801,0.19588417,0.31418234,0.41474417,0.6568165,6.405719,0.5802228,0.8025021
0.22437559,0.08445995,0.6989396,0.2606329,0.40770608,0.44553182,0.86987126,7.277931,0.6099658,0.818692
0.14180468,0.16215643,0.8097541,0.26491183,0.37465176,0.3430097,0.9246371,6.9343314,0.66832066,0.8051713
0.18051918,0.097751416,0.67577845,0.23159772,0.5384996,0.3985595,1.0173172,7.066913,0.89042753,0.9103528
0.1885309,0.0846714,0.67500037,0.24113828,0.4294841,0.5098529,0.89857525,7.375891,0.76882684,0.8956327
0.32880268,0.08599297,0.7060145,0.29401425,0.28217334,0.6478028,0.9420355,7.6503663,0.7177893,0.9679455
0.09904432,0.17627968,0.8246988,0.42396957,0.6086024,0.40453565,1.1526111,7.215155,0.97008985,1.0966023
0.19601034,0.0876815,0.7460209,0.3321278,0.5622848,0.5360021,1.0825776,7.626627,1.0002744,1.0027852
0.24502237,0.21192868,0.85824955,0.46627918,0.5210143,0.5580178,1.1445111,7.3237486,0.8948376,1.0683365
0.21270412,0.251689,0.8984362,0.5079238,0.65006006,0.5969575,1.2177228,7.7051287,1.151555,1.1750516
0.0957926,0.08780649,0.69986427,0.26721168,0.5054515,0.42256376,0.95694095,7.0046043,0.73180073,0.8995432
0.20854,0.07131247,0.71571803,0.2997311,0.5483653,0.593607,1.0515039,7.287253,1.0029011,0.96776766
0.10762224,0.11971557,0.7476745,0.28524068,0.5712066,0.32089406,1.0855443,6.910838,0.8248724,0.9228675
0.16737361,0.13976277,0.79841465,0.33370405,0.4590485,0.44405106,0.9460163,7.431081,0.69656694,0.84776676
0.25442752,0.0853054,0.6846464,0.25556567,0.23001052,0.5559095,0.5518734,7.27267,0.53096247,0.79028666
0.36699373,0.13646217,0.77925956,0.37336373,0.48293915,0.65983164,1.1114044,7.508141,0.9088593,1.0325247
0.17178191,0.14577465,0.712439,0.40543988,0.28843373,0.42084837,0.7531925,7.06623,0.79632473,0.9763658
0.29505998,0.09668585,0.6415756,0.22394976,0.21391901,0.57774603,0.64997756,7.020556,0.57205725,0.8518802
0.14781165,0.11819433,0.62302333,0.15394339,0.50471205,0.3833421,0.9597088,7.239001,0.8658711,0.82112867
0.26459107,0.08357173,0.7100808,0.3110114,0.5399302,0.6556062,1.0520794,6.9555554,1.0175463,0.9905867
0.2507556,0.2270492,0.8783882,0.491858,0.5325436,0.5972282,1.195748,7.8356595,1.1588825,1.1495738
0.13806339,0.114046864,0.7506711,0.3341289,0.56711316,0.3514675,1.0814104,7.3799987,0.824892,0.9457143
0.14600262,0.51283014,0.39404842,0.47951978,0.25867942,0.39788088,0.51482934,6.2628193,0.4466135,0.55187035
0.18693025,0.11787923,0.5723754,0.10769452,0.32387367,0.449997,0.68298036,5.856031,0.541228,0.6394581
0.1953349,0.17459998,0.8129374,0.41113225,0.30110803,0.47276562,0.91849196,6.9259415,0.66226417,0.8371646
0.108012736,0.24576995,0.9099516,0.35890234,0.35939756,0.33000252,1.0306453,7.2768245,0.8921617,1.0056891
0.24408202,0.11482398,0.7512673,0.33751187,0.42562696,0.56729335,0.9815635,6.967398,0.7610711,0.9154269
0.19054262,0.12631299,0.77649987,0.3695076,0.52389675,0.48452067,1.0535393,7.6183705,0.80950236,0.9805751
0.2510527,0.09109815,0.71016073,0.28627694,0.54433244,0.5183272,1.0475887,7.279868,0.87430525,0.9700015
0.11732713,0.103423454,0.6724548,0.2414594,0.5017258,0.44774795,1.0107706,7.031409,0.9596712,0.9300823
0.18060112,0.13646565,0.7815469,0.3706997,0.4069598,0.6216758,0.99402493,7.201949,0.80254775,1.0490372
0.22571813,0.13909075,0.5808273,0.12704511,0.27708745,0.47739047,0.6610733,6.771513,0.5825535,0.7965689
0.24005334,0.31351382,0.9502272,0.5658044,0.4489877,0.6143045,1.0886203,8.08198,0.8246442,1.1180162
0.18663388,0.10774986,0.75104415,0.28293023,0.3950956,0.40238988,1.0883144,6.5266685,0.8300584,0.93969864
0.24789332,0.13421784,0.38890645,0.0897216,0.2743185,0.55102015,0.55850947,5.2479224,0.4728378,0.5407324
0.2352191,0.2296594,0.87460184,0.48781496,0.32578498,0.62799186,0.67398113,7.6932077,0.6598109,0.98302794
0.14225744,0.100086935,0.6842489,0.25802928,0.5403469,0.3711932,1.0253173,6.8536243,0.9006351,0.93202007
0.23389308,0.20109838,0.8493458,0.32112503,0.2756139,0.48118705,0.9623634,7.153777,0.688663,0.84990484
0.22468252,0.11328546,0.75003403,0.34619725,0.35594547,0.44430646,0.8304819,7.720159,0.5833154,0.81549037
0.17723756,0.20558903,0.8568683,0.38284364,0.61572963,0.46892506,1.1793208,7.207698,0.95850354,1.0569568
0.07444831,0.24015397,0.8884041,0.48693517,0.6390072,0.3704706,1.2017161,7.4302206,1.0415163,1.1629246
0.15804632,0.08963918,0.6627678,0.22548129,0.50498265,0.46021366,1.0000724,7.210586,0.7672235,0.90636617
0.10872245,0.3229256,0.9798896,0.44647172,0.6893528,0.32203475,1.2850235,7.7287273,1.1646643,1.2419271
0.22296546,0.29770184,0.93274856,0.5380363,0.53830093,0.5434228,1.1303577,7.4149847,0.86147314,1.0436528
0.12857938,0.29171935,0.93406993,0.49687457,0.29344687,0.3511335,1.2404478,7.2075768,1.0885884,1.1964122
0.17995489,0.0973114,0.6940691,0.2601797,0.5224509,0.44897577,1.0218918,6.8826785,0.7790072,0.93084306
0.08462397,0.11803284,0.7629419,0.24592608,0.3756327,0.2686665,0.9295967,6.6023216,0.6614316,0.7864888
0.093087755,0.15848018,0.6962963,0.29025394,0.2305241,0.31221485,0.69696516,6.8080025,0.7022481,0.83711547
0.15357968,0.2137579,0.88614774,0.3292142,0.3311735,0.3516709,1.1743232,7.0400534,0.86867005,0.98274493
0.24683568,0.11666346,0.58504695,0.12123936,0.23940873,0.5006726,0.62789553,6.651897,0.55810523,0.78963095
0.31571358,0.08954072,0.67800695,0.23823972,0.53509474,0.65990704,1.0182307,7.51375,0.9521359,0.9171193
0.16628863,0.24788967,0.5339712,0.14162514,0.17597713,0.38608122,0.41291478,7.1864243,0.41722625,0.715375
0.13908575,0.17050457,0.82454586,0.42082253,0.599012,0.49791354,1.1421776,7.3870635,1.0177287,1.089721
0.1993587,0.19480525,0.84332097,0.43921,0.59873736,0.5876774,1.1558937,7.407085,1.0349431,1.118862
0.17947331,0.052476037,0.5783518,0.110045426,0.22830008,0.39405185,0.61832064,6.3563523,0.4124471,0.641551
0.2843633,0.09571807,0.562582,0.16823539,0.3338994,0.63185334,0.771219,6.3631153,0.72369707,0.8262391
0.19642515,0.10386742,0.7461839,0.33633825,0.29770663,0.39715734,0.7338505,7.094644,0.5549418,0.78039855
0.08853644,0.022545695,0.584921,0.24686372,0.10290694,0.34193718,0.40254784,6.4194045,0.4980866,0.7574019
0.1545954,0.13911304,0.5902252,0.10922776,0.5006426,0.40392256,0.9334146,6.5446043,0.82458025,0.77274454
0.20463859,0.110053,0.7586178,0.33979675,0.5741023,0.5250922,1.0932286,7.2483454,0.997344,1.0157279
0.23937854,0.264129,0.9081173,0.52295786,0.62530804,0.62803143,1.2225525,7.7041035,1.0232048,1.1569757
0.27841195,0.10062622,0.63782597,0.18495485,0.31626344,0.5137745,0.81548303,7.143677,0.65009415,0.8468834
0.27821463,0.19191504,0.84350723,0.42392263,0.55638456,0.53948265,1.1197764,7.5280204,0.8594703,0.9883243
0.28132442,0.13129954,0.6155929,0.16074543,0.16948494,0.5784563,0.67408144,7.3298974,0.5476191,0.8396852
0.10619538,0.039105203,0.65899414,0.24498779,0.52251434,0.40717432,1.0013969,6.976558,0.9638444,0.92176265
0.23514713,0.086482316,0.7006477,0.26338553,0.5436073,0.47489315,1.0376204,7.171071,0.8373506,0.93865526
0.33508128,0.17161818,0.81946254,0.41891345,0.60468066,0.6222699,1.1460699,7.409273,1.1031632,1.0872085
0.1921533,0.07164269,0.5485637,0.11186118,0.44046852,0.40307465,0.8316607,5.6284804,0.60480726,0.6193647
0.16409242,0.085539855,0.7155763,0.28934485,0.48714173,0.4231411,1.0078869,6.7517533,0.7281231,0.89973086
0.24459201,0.0939177,0.7090217,0.2720213,0.5253079,0.5007139,1.0314852,7.3333178,0.78631604,0.9088772
0.18377197,0.15448605,0.5927101,0.15140183,0.39083186,0.6119389,0.9460393,7.592928,0.8727299,0.8163816
0.060457025,0.1630143,0.8545982,0.28930613,0.25506142,0.2694942,0.94293314,7.2833424,0.84778565,0.94745
0.26625034,0.30721545,0.9414969,0.56948584,0.45004302,0.6643021,1.1187043,7.965736,0.86006135,1.1230413
0.04618915,0.17200395,0.83792365,0.2701727,0.56225514,0.2789767,1.1200459,7.1556516,0.8130468,0.9305572
0.21668887,0.11758356,0.5783281,0.10900708,0.2099246,0.4052153,0.5176014,6.343351,0.26110837,0.49589306
0.19152145,0.09475676,0.68251085,0.2400368,0.5376464,0.45843765,1.0216289,7.0923395,0.84267694,0.91948223
0.1039636,0.20081958,0.8499657,0.45787922,0.3735894,0.36287126,0.7637519,7.379097,0.6176769,0.83645105
0.2637886,0.12726074,0.52323157,0.07133921,0.2571472,0.47883487,0.34740964,6.551403,0.4945766,0.6855114
0.5041517,0.12708826,0.4518504,0.16812977,0.2984589,0.6565055,0.67750144,6.271697,0.51606387,0.55772233
0.24276823,0.12009138,0.5656489,0.088876575,0.47012433,0.51630867,0.8923958,6.950703,0.7843189,0.7411612
0.10340385,0.09024357,0.6904944,0.21914038,0.5434011,0.3601719,1.0296268,7.32253,0.9514777,0.93169945
0.23905788,0.11130242,0.75926524,0.3414029,0.43570915,0.563317,0.9955626,7.360269,0.7798498,0.9440808
0.11834236,0.11388369,0.7257709,0.3705968,0.25318596,0.34059143,0.6813086,6.992073,0.6591001,0.8344177
0.28881416,0.33330193,0.9653015,0.5975964,0.39217192,0.7405201,1.0177636,8.215417,0.79488724,1.1060026
0.17706104,0.3024854,0.9462276,0.5590204,0.67266303,0.59200376,1.2565101,8.029572,1.116991,1.2271456
0.19561513,0.117163084,0.6142091,0.17178759,0.23681943,0.40829378,0.65911895,6.5112987,0.68279845,0.8345457
0.21048433,0.071021006,0.63068,0.19269796,0.26683888,0.42532745,0.67184395,6.7485256,0.55348635,0.77141976
0.11948262,0.14642088,0.7984693,0.37172797,0.59229016,0.42065752,1.1303006,7.3328657,0.9902798,1.0591146
0.12840782,0.16996115,0.8159184,0.3010039,0.20922211,0.3248717,1.0163184,7.0126877,0.8598281,0.9620851
0.32983842,0.072637476,0.6831433,0.25260898,0.5390247,0.61312675,1.0253577,7.1276245,0.9371534,0.932582
0.21232966,0.080813125,0.70880175,0.2790159,0.16466448,0.4831712,0.6106435,6.990246,0.46239075,0.7341691
0.13278677,0.10116028,0.71128017,0.2930599,0.557857,0.4402555,1.0527649,7.293091,0.9602846,0.9652666
0.69523054,0.2803368,0.5107266,0.100969195,0.32666963,1.0475312,0.8652936,7.1800933,0.7674873,0.70112646
0.1268438,0.10853033,0.64968497,0.20111912,0.48384446,0.3751778,0.9073241,6.7975054,0.67369205,0.8265936
0.18772301,0.14403717,0.793095,0.39410862,0.5922837,0.59119874,1.1257062,7.682074,1.0574507,1.0648097
0.2772692,0.09298137,0.7239757,0.30856207,0.50597966,0.5826281,1.0601667,7.648264,0.90679,0.9851594
0.20976646,0.14511074,0.7930839,0.38944495,0.55056274,0.49539608,1.1015835,7.386253,0.84501785,1.0036136
0.19914353,0.10632878,0.64161474,0.21385437,0.48498744,0.4315437,0.9692346,6.9909716,0.7030604,0.8610374
0.090754785,0.09721335,0.6156241,0.17599948,0.51421094,0.33361793,0.96204096,6.6176653,0.77032167,0.83294857
0.06445888,0.107844956,0.64861894,0.19449905,0.5242751,0.33508107,0.9861775,7.0160866,0.90408605,0.8606676
0.24693467,0.13919955,0.5922954,0.14416374,0.21611452,0.5648022,0.7483122,7.0678535,0.58704466,0.8226868
0.21725173,0.13711403,0.7827491,0.3723595,0.57773083,0.45474842,1.1075155,7.459929,0.9122293,1.048122
0.087113805,0.091861784,0.7191428,0.2919873,0.39486983,0.35011882,1.060024,7.164919,0.99714345,0.9676344
0.30521515,0.09907899,0.73527664,0.31196892,0.27764317,0.5464239,0.8097505,7.2395844,0.6320475,0.8399021
0.14771807,0.18409045,0.8378149,0.43894556,0.48790622,0.48914808,1.0164893,7.490922,0.7761284,0.97650737
0.26979145,0.118938334,0.628532,0.15956266,0.2610104,0.524524,0.75055534,6.585775,0.60396206,0.8425035
0.121543296,0.1147866,0.5926451,0.119574085,0.50582993,0.38772956,0.9253543,6.698352,0.8070057,0.75886947
0.33187053,0.09094886,0.6956769,0.26410285,0.25447044,0.6162141,0.7936319,7.316967,0.6643247,0.93788594
0.1811431,0.09540371,0.6941831,0.26307622,0.511548,0.4877699,0.9786878,7.159799,0.7393143,0.86079925
0.2556892,0.14648275,0.548821,0.075963445,0.23534194,0.52692324,0.53556955,6.6182947,0.5201836,0.7218776
0.30665568,0.09383897,0.6456092,0.21665882,0.48591307,0.58495146,0.9848848,6.9145937,0.8792911,0.90379184
0.3341958,0.09514095,0.6381119,0.20351315,0.5084314,0.6963733,0.97228396,7.12355,0.9099375,0.8802365
0.18561575,0.058520462,0.63643974,0.29047522,0.17364012,0.4314764,0.44705236,7.126957,0.49013224,0.83446467
0.2379376,0.10692579,0.7374796,0.3194815,0.38434434,0.5061215,0.9172084,7.818327,0.67086643,0.8855961
0.21656542,0.077866696,0.62050116,0.21540786,0.3330504,0.5960411,0.8040173,6.900353,0.8029669,0.88747895
0.19444978,0.10399588,0.6578627,0.20980418,0.46960956,0.45765442,0.92680943,6.854956,0.6718234,0.82908726
0.09833062,0.14727165,0.80876356,0.3982367,0.5782221,0.39928427,1.0569055,7.2827644,0.79998636,0.9639518
0.24225429,0.1583643,0.8157387,0.40724033,0.43856615,0.59536326,0.99145156,7.477386,0.7916878,0.9645793
0.07313424,0.105275296,0.6193728,0.164408,0.502791,0.37638876,0.9571443,6.687766,0.74161476,0.83809644
0.14011991,0.117913604,0.7447672,0.27280506,0.5227,0.3476818,1.0578078,6.9829874,0.7625637,0.8707746
0.21389675,0.1184462,0.60412055,0.15067966,0.15992609,0.46994326,0.58859545,6.6436,0.4472968,0.6911848
0.21273482,0.079764895,0.7112639,0.28980428,0.5534169,0.47040188,1.0552785,7.539078,0.84085894,0.95930105
0.19877316,0.25361028,0.91518706,0.36497316,0.5461589,0.41960815,1.164181,7.3208637,0.87688553,0.98167
0.2515925,0.09263456,0.662639,0.21582584,0.28671673,0.4749309,0.77744836,7.157784,0.58700097,0.8185699
0.06300791,0.12765731,0.76622766,0.29994065,0.39540955,0.2873216,0.9222541,6.913314,0.65491104,0.802345
0.17517355,0.09960698,0.6652733,0.21881592,0.5250036,0.39554995,1.0090668,6.97339,0.81287956,0.9019061
0.36879492,0.1902468,0.5381568,0.1280638,0.47255206,0.80360293,0.8926194,7.3556347,0.8399573,0.7951781
0.08449179,0.13155895,0.78252244,0.35559884,0.5863321,0.39057007,1.1134781,7.172637,0.96243984,1.0456892
0.12042441,0.09805339,0.72060716,0.29711142,0.5628002,0.40448877,1.0605177,7.3984275,1.0062053,0.97312605
0.27219212,0.09418387,0.6658724,0.22607052,0.17803527,0.5787713,0.6058996,6.9040008,0.5085718,0.7149183
0.31680176,0.098550595,0.6387852,0.20489901,0.26389512,0.6457034,0.8776863,7.0916514,0.70075727,0.88743436
0.21645741,0.21806118,0.8690874,0.4708852,0.43881872,0.5439569,0.99550754,7.5283613,0.75891536,0.95592713
0.25074592,0.10707285,0.5620512,0.10263086,0.4083532,0.51983106,0.83890355,5.749308,0.66742796,0.62840223
0.1875524,0.09941531,0.7416457,0.31930718,0.5300785,0.40082392,1.0780444,6.9227104,0.88017803,0.9858801
0.20265485,0.26197642,0.8938591,0.5215918,0.4183918,0.6774013,0.8764812,8.285621,0.6177793,1.0338508
0.24321444,0.13094862,0.7669635,0.35522956,0.57809037,0.54568076,1.0954118,7.5616927,0.94478214,1.0273478
0.22855774,0.08443737,0.7001248,0.262659,0.53435886,0.49502885,1.0324492,7.4775734,0.9250072,0.94706196
0.10619443,0.28354472,0.92223364,0.5436516,0.44227475,0.5156875,1.2302899,7.783386,1.1317828,1.2027819
0.22904529,0.097382426,0.7062303,0.28307176,0.54485166,0.50338167,1.0491179,7.352368,0.9256415,0.960215
0.15886395,0.20206586,0.8458415,0.4529403,0.6195814,0.5239162,1.1664083,7.670502,1.001827,1.1243511
0.081790805,0.10822454,0.6513994,0.20012623,0.36895522,0.32961577,0.9033813,6.45272,0.6794235,0.83283406
0.32539594,0.105744176,0.76445913,0.36884955,0.5155015,0.692361,1.0987835,7.686132,1.0084764,1.0428871
0.057328075,0.27376863,0.8847473,0.40142956,0.6008987,0.38772947,1.2088225,7.4151416,1.0743942,1.1493452
0.111292064,0.105386205,0.62878054,0.18471493,0.50913197,0.3904878,0.9692599,6.8188577,0.7985687,0.8625764
0.16821672,0.1672162,0.8264581,0.42316663,0.2780379,0.42498142,0.7654621,7.36621,0.7785506,1.0189639
0.15657575,0.21003246,0.8632498,0.45878512,0.55146414,0.49214116,1.1752144,7.41042,1.0152153,1.125932
0.14793171,0.1296274,0.5626354,0.08706344,0.42689747,0.39232388,0.8590373,6.277104,0.64932346,0.72137207
0.15959217,0.098941736,0.72599834,0.29968378,0.45850402,0.45158905,0.9251899,7.160327,0.7179371,0.88894993
0.2854187,0.107946604,0.5951928,0.11660111,0.30532613,0.62528265,0.5464336,6.7125406,0.5935241,0.7906192
0.1137587,0.10294979,0.7357146,0.3130016,0.5665367,0.4518844,1.0730414,7.07901,0.99562037,0.98855394
0.27683622,0.0878445,0.72971016,0.30973625,0.55801594,0.5103735,1.063246,7.4823165,0.8963082,0.9833908
0.20736645,0.09196554,0.68422526,0.24690525,0.45462683,0.530392,1.0041207,7.199463,0.7625961,0.91849065
0.23058508,0.076246955,0.69264084,0.25949886,0.24671157,0.4848673,0.7382207,7.2368937,0.5602748,0.8257584
0.1915282,0.10646771,0.74577445,0.32640973,0.5685018,0.4419615,1.0812571,7.417585,0.856237,1.0038953
0.13331456,0.21345209,0.86658245,0.45492172,0.63087904,0.37436235,1.1869512,7.5008483,1.1483483,1.1346523
0.1678185,0.08255275,0.6794619,0.25507262,0.5257617,0.46085793,1.0136434,7.4064355,0.8371197,0.93825287
0.18853813,0.12896635,0.6030123,0.14973126,0.49594882,0.37712863,0.94745284,7.066392,0.854013,0.82912254
0.38318387,0.062591486,0.3949972,0.15174553,0.37473193,0.7956646,0.71598834,6.27986,0.65835214,0.62855756
0.2792942,0.10195378,0.7145001,0.29268175,0.5111412,0.5395732,1.0522258,7.314494,0.82482547,0.95861083
0.11077112,0.18144101,0.80425596,0.3107418,0.3524518,0.35244155,0.8470448,6.9038663,0.72589177,0.8683976
0.1403719,0.10500431,0.74946004,0.32881817,0.5748698,0.3502342,1.0884548,7.0821714,0.8444176,0.97317094
0.21153156,0.08499741,0.71617496,0.29031676,0.55656564,0.44987294,1.0534145,7.1000934,0.90798455,0.965031
0.15273736,0.1852009,0.83500034,0.4353136,0.61516637,0.5213975,1.159957,7.4436374,1.0195823,1.1054173
0.11524092,0.09642287,0.6667489,0.22145264,0.39636004,0.3655973,0.7573653,6.9764676,0.49158248,0.67477816
0.110542834,0.11807121,0.5210236,0.11081941,0.41660622,0.34511912,0.82778966,5.99359,0.64274764,0.6600376
0.27032223,0.09228387,0.7235903,0.29417235,0.55952346,0.4870936,1.0601181,7.196836,0.87283313,0.9731399
0.17285438,0.18392201,0.77777606,0.3448683,0.35376474,0.38876513,0.8745323,6.7511964,0.8917704,0.99654216
0.2927829,0.097963385,0.5321287,0.07034809,0.24385285,0.4908563,0.354831,6.253158,0.45680845,0.6562015
0.27088916,0.13962112,0.7898812,0.39107183,0.25657123,0.5977898,0.6348464,7.4445486,0.5971067,0.8801326
0.04264813,0.09407749,0.7381217,0.313297,0.56174994,0.41537127,1.0699751,7.156501,1.0168884,0.99028665
0.08761899,0.06084345,0.5630929,0.12832882,0.3697047,0.27498677,0.89306456,6.358178,0.7848209,0.7791104
0.10401839,0.10080377,0.68704313,0.24573357,0.53200793,0.31478536,1.0216173,6.840691,0.8738019,0.92012477
0.18107723,0.122773364,0.7692192,0.35902154,0.58222395,0.55530375,1.1018959,7.260037,1.0144167,1.032342
0.1918651,0.15469193,0.8016638,0.4018439,0.29783157,0.5844442,0.807665,7.3618226,0.6842547,0.9592173
0.2416421,0.11926463,0.62334836,0.16414241,0.20093945,0.50856304,0.6277761,7.024937,0.510487,0.7775716
0.10879759,0.13879046,0.7972845,0.3618892,0.5889787,0.35742167,1.0810778,7.040575,0.79245025,0.93059903
0.15287718,0.14049439,0.7945781,0.25008675,0.5863166,0.34397486,0.98115355,6.972941,0.67540073,0.80849004
0.26728055,0.14008482,0.533092,0.08475443,0.20661798,0.58469117,0.52111435,6.372485,0.50723445,0.73806274
0.20760632,0.11077422,0.6383367,0.18952422,0.4198631,0.47224414,0.8965538,6.887795,0.6954271,0.8640034
0.22152089,0.10584559,0.6340589,0.18410663,0.3913153,0.42927104,0.8377305,6.890845,0.649092,0.82626927
0.08535321,0.18834242,0.86005,0.33111876,0.3747141,0.3290723,0.9389053,6.9952393,0.7619766,0.9164442
0.20303205,0.0920381,0.6735868,0.24109724,0.48845407,0.50408196,1.017196,7.2791696,0.7809515,0.9146814
0.26357284,0.07720404,0.68441445,0.2440327,0.54708445,0.6237798,1.0314631,7.2100496,0.96351033,0.9267785
0.24088399,0.119432434,0.7643746,0.34688905,0.45252597,0.5554988,1.0013828,7.212169,0.76172495,0.9193111
0.25276434,0.14964685,0.7990946,0.39047727,0.59675103,0.50669646,1.1287735,7.5061936,0.91360915,1.0498569
0.20446767,0.12877671,0.60973114,0.15939522,0.50740033,0.42066625,0.9551228,6.6901298,0.8741399,0.8281977
0.2187224,0.12905967,0.59064776,0.12808986,0.4736766,0.51141447,0.93406236,6.966341,0.7730315,0.7957626
0.63916636,0.32779422,0.403544,0.23521578,0.3815211,0.8065148,0.71694684,7.5445967,0.6168803,0.5765588
0.28331146,0.13683727,0.5416476,0.063531004,0.23386328,0.5510308,0.5428686,6.6420665,0.5179405,0.7151172
0.19797175,0.10886592,0.65968496,0.22057454,0.4017773,0.4854458,0.8995225,7.3205357,0.69097704,0.8957507
0.199281,0.09345453,0.72470576,0.29588515,0.27311295,0.41606912,1.0635115,6.4214044,0.8523984,0.9750281
