0,1,2,3,4,5,6,7,8,9,10,11,12,13,14,15,16,17,18,19,20,21,22,23,24,25,26,27,28,29,30,31,32,33,34,35,36,37,38,39,40,41,42,43,44,45,46,47,48,49,50,51,52,53,54,55,56,57,58,59,60,61,62,63,64,65,66,67,68,69,70,71,72,73,74,75,76,77,78,79,80,81,82,83,84,85,86,87,88,89,90,91,92,93,94,95
0.316180220688929,1.9223934787415726,2.9487539024703766,1.5871403970803506,1.3588526854125957,0.02823663682374713,-1.2699201886636062,0.03303037458030683,0.4021392863836185,-0.2016896504372158,0.06588756787033768,0.21060952363624408,-0.6991348947672708,-1.0130423803581348,-0.9477114743020091,-1.1334351679284274,-1.1009018800629284,-1.1009475183848936,-1.3063486168364042,-1.4639951423225246,-1.347932768042152,-1.2675522232181966,-1.549824641424304,-1.7071527039060495,-1.662347030004214,-1.691299921144074,-1.877875513359689,-2.0273308647774724,-1.958702791009226,-2.0796108694129862,-2.1470446063898883,-1.9969142300117584,-1.5553122978033544,-1.6924592752569074,-1.5175992614446638,-0.8733954783727317,-0.8069365518270248,-0.33045277767328834,-0.13634726443314213,0.14176423558142803,0.6683072676973361,0.5181654113712584,0.8795379380003655,0.7150803352706437,1.0155831420257142,0.8503084424404177,0.6506059117408994,1.1778848768772394,0.5519225300449844,0.797824975329886,0.789258973924297,0.34648381516158083,0.7906408299354524,0.48827634153397287,0.6847103038663027,0.6063921789379473,0.6287046439693784,0.5538596154475743,0.5608127042714409,0.5963854943273389,0.6395529836779761,0.8449204766426296,0.3637980194233365,0.44732828197998764,0.7406756231055074,0.3386376728387978,0.5553437254259174,0.3730703492550432,0.37260119936823183,0.6838307307616057,0.0818950806277659,0.457747038417469,0.4522729227476009,0.4374692383461867,1.0451601925071665,0.6380080058495228,0.9468918682287907,1.0821526661084833,0.4051380759740264,0.5057443489512506,0.4053110391827788,0.1891073398695744,0.14336210963238824,0.2079549113294155,0.17073771422864148,0.1800626085505589,0.47522706861736136,0.21708859716628814,-0.001568812851529367,0.2623781277534008,0.33374819010480217,0.19683584790961767,0.27768314007436,0.4017135431651434,0.37091601940840174,0.33468799775249847
0.5698592967482955,0.5958795234403467,2.161857243017303,3.31929845960456,1.7674553906671082,-0.11016717714794011,-1.406810914313078,-0.6025600350200997,0.23750414002086884,0.18395770244122372,-0.1097094066869849,-0.3739714234759382,0.10229520379748439,-0.9152544641319308,-1.0298836134449922,-1.017225814874107,-1.1604355509880262,-1.2969555535528994,-1.2797823758337887,-1.1653881130899808,-1.3067005415311723,-1.6079559866783482,-1.4869179302819882,-1.412053691909955,-1.6802628706372098,-1.6202263621396282,-1.9106483352839312,-2.0504127802106407,-1.857127250093555,-2.029396031501451,-2.066679323517314,-1.589450551960898,-1.7398783806960192,-1.6276698316709846,-1.8072233537337272,-0.5755095483473207,-0.3641393306392133,-0.43484878286677503,0.27905075495635695,-0.17564226571590405,1.0280154618366888,0.6263190877552162,1.067734171516385,1.1420840237825929,0.9207302925242165,0.9587243863215299,0.7852068941909544,0.9593801607521245,0.5014941463811036,0.8274661103042763,0.7647341964966832,0.5123694669155098,0.701941897359059,0.19178862523966678,0.7371598442164609,0.3027812547766747,0.3820772456013229,0.8587954610520369,0.46412959000566445,0.2264172547027378,0.3939876613659566,0.5405390575088891,0.46799305488089965,0.3363634799540355,0.317287958262822,0.33315400016550517,0.25408515548991367,0.424683011384612,0.33910899694545293,0.02315369366548155,0.48433488131336033,0.07203652103962857,0.38275878457343065,0.9196424317542298,0.6613035453399972,0.902389829281902,0.9662378011044854,0.7542479778383407,0.44257991839215133,0.3949540176438363,0.4293327923744411,0.15999130074978213,0.29103491581523205,0.12284111380382767,0.1568907095736868,0.4358146805624549,0.4903919310099847,0.19986394426646292,0.05834862232266612,0.42514121410279904,0.4462489881430079,0.22844942663178305,0.5143144736711407,0.3572753107858263,0.31134350654883103,0.5962555972844944
0.5971325357780655,1.1597799309329153,2.6188457218146053,3.2133696048821574,2.07273364351002,0.19432355125178877,-0.3942155293853438,0.7788289983949174,0.7480235232738135,0.531059484599753,0.6101424631670117,0.07615614717203827,-0.16348236883509412,-0.7616822980881449,-0.8310276068820696,-0.9094169332214873,-0.8694372004455628,-0.9321014409328463,-1.0879226941047102,-1.0232488696396946,-1.0210188244210199,-1.2225181468841688,-1.362858599855084,-1.3676714322989398,-1.5105483304987408,-1.6877303689493983,-1.753109979002239,-1.8271989691353527,-1.97514855674305,-2.0018880896551625,-2.156774300066207,-2.1036439552509782,-1.8975352628179456,-1.9364359005972784,-1.7161969202917684,-1.4282700763131861,-1.2520676533807393,-0.8930596962984173,-0.48026583107193294,-0.09956424662098479,0.18997912480779489,0.4589923424867748,0.6874792733033747,0.9048230951921913,0.9459510439118927,0.9544589217544793,1.004176545458601,0.9539561563309001,0.8317870334143772,0.7858380996783698,0.7156246575221806,0.6516405145499656,0.6962603578217327,0.567773272726155,0.49719653344499776,0.6546782675908336,0.5899737126523531,0.39478097294530745,0.47055036809505185,0.5993185008115444,0.4859631028606614,0.5258113892280059,0.5164505874462337,0.436057969990186,0.33838156720748686,0.3161356900094332,0.4184271725784794,0.28118661716493887,0.21512786063277217,0.2680180011092869,0.43702507015364894,0.15620731961408243,0.21311797508022692,0.6182085942232232,0.7205307570032655,0.878008560624036,0.7612505342657947,0.5222687898973476,0.5488971723858085,0.35404978610234555,0.2509663077588741,0.19797178218701714,0.09213519319536573,0.21159291124987545,-0.015336491207731853,0.09588221501315145,0.12269903049214397,-0.028985831589115642,0.05947275507799385,0.06411457248727911,0.06284651071273652,0.05113763838814628,-0.004010786772551392,0.05481683100419648,0.1725397570350137,0.11143876980192663
0.5962496266293943,0.8067217853400471,0.06737337820385839,0.052434544102076645,-0.12231799995221444,-0.26339833684493985,-0.3417266245949057,-1.011522536883877,-0.6021312791614529,-0.5324855615077976,-1.1918358269715978,-1.010595495906293,-0.9034872501594653,-1.0974928711501408,-1.4145882327296189,-1.4368077623848206,-1.6335726622392361,-1.5815705086987843,-1.9293009456371526,-1.7575378041450078,-1.8152702812471813,-1.9071198165082401,-1.7384213787987457,-2.2810905795691063,-1.7942860020292546,-1.7551914515688003,-1.75672164217396,-0.7338195007359878,-0.8486117018457364,-0.42896493016574083,-0.26773593765411996,-0.07992464725465734,1.1835145749309086,0.7373262340469225,0.6535386480203863,1.1849620335121527,1.0846701123889777,0.946089770387591,1.0953061534465869,1.1229512150517085,0.8190760187417312,1.3498590201689125,0.6081953970507903,0.8773238268857053,0.5150084579105326,0.7287095178374495,1.0941827872652268,0.7781719188736115,0.7124258450320596,0.79568843957026,0.7136398143399751,0.49253759580552015,0.7940859715347293,0.5038985825055001,0.6489043076469327,0.7704248439021649,0.15572799712640825,0.41782935180530134,0.31588795718561996,0.4227292187498013,0.3251214441517581,0.2796839309478658,-0.09073785346287296,0.08329454501483334,0.5380683056793667,0.24887551038601005,0.5643458863438608,0.3111503978059006,0.27414754009639747,0.21925201747750203,0.27537285866980526,-0.017998852786713832,-0.13965009759773794,-0.2112469439816382,-0.11434781993352754,0.09359781635991628,-0.4263566096012894,-0.18965026684184644,0.048561674101941184,-0.668702773320836,-0.30644332636863353,0.004901579821378602,-0.4162936008998525,-0.1978000246096502,-0.18012397083650786,-0.5164603584228115,-0.41615255435944387,0.1092947542548449,-0.023448559978956347,1.2297977642276248,3.0633052803495495,2.415206127828572,2.448541805644933,1.2833953490579524,-0.8020318835621784,0.09361553086447817
1.358155543468713,2.840178819774654,2.6543998883676907,1.2249940787243505,-0.05703967594461876,1.2032357574938448,0.7284857085125015,0.9717259509765476,0.5527103554593147,-0.9937928026469255,-1.095381244112799,-1.3868889878647948,-1.5011395002442587,-1.5439488492423077,-1.617023442339424,-1.807374448971296,-1.881211523722274,-1.817907653012816,-1.9737479458439016,-1.877255063216976,-1.9828728960305833,-1.9843652892584316,-1.821368827149152,-1.785416284164274,-1.6671878994677425,-1.5873820560048741,-1.2153016645638193,-0.9615391049090262,-0.5819709526296681,0.009188723456494375,0.4161066856343953,0.8011193791270643,1.1593237504521294,1.3536985692976828,1.5888952585943508,1.666611389648455,1.5788450768793707,1.4432417608688313,1.378201422382339,1.1935672689680161,0.9802779291222694,0.9113838867219854,0.810543652368794,0.8011494059260107,0.6101227912915979,0.6474771746402771,0.43867922870429227,0.4195313792707727,0.399413936653866,0.27920606514296203,0.3582321768726275,0.2247109635330543,0.22002697389479742,0.21758696223498372,0.2274690964113005,0.052021021393138245,0.057792022368479426,0.1413322627278591,0.008173140918224112,-0.013452765546775897,0.04290924902056392,0.06239040597488238,-0.05828370321368274,-0.05595402973619092,0.06295980334905102,-0.15180956415193483,0.016508938476099244,0.033037657899732585,-0.14286773019210536,-0.044185447591262736,0.0019604584970484467,-0.023361858500934814,-0.044223508343244955,0.028399487528163927,-0.0375362607585537,-0.011214876363820457,0.004140301665645592,0.006268812377861127,0.22848412686661188,0.3810086649365067,0.40718848508746264,0.20056617022465267,0.2932153210116251,-0.027945361400782565,-0.19972822380043437,-0.17163437867465683,-0.2859557611353298,-0.15140500153941458,-0.26337950869522475,-0.22359164780769444,-0.27320977200359264,-0.06551004593526642,-0.1548024127076499,-0.1000679762993775,-0.07263401003910998,0.016016614577056804
0.998139362702522,2.335035986248792,2.362923011447024,2.593941482885329,2.6488431778683306,1.4751271685311829,-0.12963076865589587,-0.9121523827475966,-1.0197262803723375,-1.325690616840583,-1.3378888154631452,-1.2795412261245227,-1.3237117834326542,-1.564811297770667,-1.3454930244112164,-1.517170418546939,-1.5931257550060092,-1.6617308085108322,-1.9591734449203044,-1.8580579227358742,-1.8531777385624055,-1.8594587377493101,-1.7917949997655358,-1.6748202612352332,-1.5501092239881,-1.2105510615815602,-0.9363654325579878,-0.5947593057435377,-0.2991367537596321,-0.15855197431306056,0.5723189112436489,0.24858708347570527,0.9413758252346369,0.5102649975920819,1.136300123999973,0.6397867964903813,0.7473659314644007,0.6626926200047751,0.5951182486910365,0.4709870694447647,0.2939250469433295,0.6418754835507453,0.35922369449674013,0.3793666403479273,0.3681228958558332,0.32204638571994815,0.3595154379723048,0.32650966281733307,0.13612429621785055,0.25069475969689015,0.2601339207088838,0.11351926342345695,0.17161253472099625,0.11057580276131694,0.049286478773743,0.08972937635605174,0.12906248967867745,0.13028046993456513,0.0025950545753076464,0.09373942470669262,0.13382509988445912,-0.10708248218910076,0.008141386552365362,0.03840193602222372,-0.11140500426805632,-0.1210476277549115,-0.11237157165357413,0.04998667618334027,0.08892496976929778,0.26502158393775227,0.5336987378717833,0.16389477280276513,0.2758169671006087,0.023518699211830165,0.10791232415697544,-0.15802381628790144,-0.10781593224299617,0.04341189386987552,-0.09835121377072144,0.016699828274990836,-0.054377909512020726,-0.28826637899289886,-0.10873397624085804,-0.08971485898846598,-0.2080961826636561,-0.012853607870573845,-0.18504385410436938,-0.29207864653818383,-0.10444647705036185,0.03830951640981591,0.40177848431614066,2.0172573558968656,2.2712293901427025,2.0895713775205076,0.9864900000849011,-0.1642983416687876
2.124143105242001,3.256056821275912,2.5710682334981954,2.3278279407244407,1.008585399754867,0.8541234445271064,1.6404935029957726,1.4317552788848464,1.322759808137118,1.0044896518948392,0.20890236134472226,-0.4232467403823171,-0.4674744761575326,-0.6080667342852027,-0.6511288733529156,-0.8226737550584318,-0.9052241907064452,-0.9014673526220706,-0.9495660423911705,-1.0892754603566772,-1.2096612107685498,-1.231441748014558,-1.3347073978266377,-1.5370964668594818,-1.6133237230733675,-1.6788923201211825,-1.8929196638399821,-1.9234982441763773,-1.9755152753950902,-2.072178547810504,-2.02450560125842,-1.9970959690645436,-1.8016804154991095,-1.5883684072384423,-1.3360236713635663,-0.9012243034272037,-0.5552756610446212,-0.2614402622988203,0.05176393467148721,0.33607673170571634,0.5297729368907037,0.6431805778455036,0.7327759217718275,0.7462524155773022,0.7005542512728807,0.7104969014637356,0.6220642289692213,0.5961962271180686,0.611946605071449,0.5658343081803401,0.6066382047804852,0.540669970842029,0.5208427537694408,0.5994271488848054,0.5270810801034825,0.5094014979092852,0.5038630764554073,0.4841260905670827,0.47963587279822195,0.3663973851564348,0.43131552554104136,0.42019657273679695,0.33482590995585776,0.28495691571528736,0.26442670764694176,0.2509186490109649,0.16181387683411141,0.1952839363794195,0.16415510263791971,0.1797856749703049,0.07721303503289834,0.06306938837727867,0.28321594442069764,0.44280141447362675,0.4813123171351704,0.5098585948544332,0.3569480309408675,0.17013791468479447,0.11104700390066703,0.021641666180475,-0.08624198669103139,-0.1309698802737959,-0.1168794605675476,-0.18101613013737422,-0.16719281524363339,-0.14311968615877507,-0.11289350604469982,-0.08379480961316993,-0.15973466905058292,-0.06301807016610848,-0.05825798214369845,-0.15452607997046514,-0.10276896603119963,-0.11150091397491377,0.17022464760121897,0.3145349713447137
0.545949812281797,1.2337908146111793,2.6935526412417885,2.8729370806859675,1.713765425712478,-0.02069106511567569,-0.6929434864048366,0.9464838675010493,1.1121995692617466,1.0817171913204577,1.7539784165836716,0.7839202357427426,-0.21839427656447302,-0.9359320644986711,-0.6969640114499348,-0.6847375854691293,-1.0907907714013287,-1.2497271316712408,-0.9632262136174402,-1.277788064910619,-1.331824441029618,-1.3950291941013637,-1.3941356279291914,-1.597420876586517,-1.7068256847754042,-1.2721754560580045,-2.049774853676035,-1.8328033357860738,-1.7521519771331215,-2.153236527016796,-1.655782840779379,-2.073217570747592,-2.0398288158044084,-1.2363203217657104,-1.3797922271781071,-1.0919427871886045,-0.6928446904959592,-0.373903339604771,0.04954333855249481,0.2923487059261774,0.7024643056450596,0.7651085919785524,0.9616112923995769,0.8895153397861016,1.3324283967114892,1.1275681233285932,0.8616432124849138,0.832728892891005,0.7743875363103936,1.0586397818728934,0.6701083137554305,0.336284286031795,0.5796039128508176,0.7268425077878545,0.4894695743997563,0.43542396003897277,0.7386228443046449,0.4762536613511225,0.5674936635406365,0.2965920545484201,0.5825477554970332,0.5029003293454725,0.20791118606813191,0.7167081364452453,0.33855987910144053,0.15158951622298894,0.3823031147910569,0.1877694063793646,-0.009509408082796876,0.16198085946411583,0.297418369537199,0.007725981334783901,0.1780389643418541,0.4150213985565449,0.2683614251615288,0.9587322883382471,0.8173595446771497,0.2527922936862745,0.4784221048895589,0.3504788897699364,0.2174131851844745,-0.16694184370935072,-0.17846439407562706,0.07198893067144901,-0.20374020349309413,-0.25156276126393246,0.0833762870593666,-0.24070366543469288,-0.37571568360351754,-0.09648984878704865,-0.17847030494197014,-0.04327270567495999,-0.16009794510350553,-0.24060229608740763,-0.061024689933236016,-0.26557620901165074
1.4761257863747144,3.2710276133385476,3.618405510970307,2.405940452464413,0.41956768964746866,1.077078472501521,1.6947127413184648,1.5811984729952264,1.71784674644394,1.037499592702048,0.05335271532994687,-0.5110668980498521,-0.47479310733280516,-0.7092277786064407,-0.7903874923537619,-0.948116237433679,-1.0689481181233151,-1.17438158874777,-1.161926548879145,-1.2989030362517573,-1.426560962358981,-1.492839969473917,-1.6359079665391767,-1.811529054933708,-1.8801434574177147,-1.983134473613695,-2.0845542850223744,-2.0653723173254313,-1.9336573052290402,-1.7702969419971935,-1.5726908485231792,-1.1795967220273855,-0.6497652871449314,-0.30073978577268184,0.034044282234240796,0.4408672553819303,0.5603429440750238,0.8412337278643569,0.8667180161022813,0.8678549431031702,0.7375897318259663,0.7467632657627152,0.7162972530996624,0.5709703601434591,0.5562017890798668,0.643067569748502,0.5335662670189641,0.5240579649323323,0.4900826970369487,0.4269830524639734,0.2942360614023902,0.4171407964794597,0.3715926553649355,0.15255259431380944,0.19098942034053468,0.20188736912321079,0.09771994073578442,0.03781140705432134,0.11312939748644722,0.033412208563271074,-0.023797480829061225,0.050407205962701186,0.021066346819751267,-0.095581701012127,-0.040171104431965664,0.03986143825973887,0.03041006746672444,-0.13083954146541069,0.11616299886771772,-0.014311334438854281,-0.120838958702906,0.07085529229562598,-0.013197923236806719,-0.06386813164296944,-0.06038425795233702,0.20265751078133434,0.12626472982324746,0.361505611102907,0.48867983131150394,0.22436394115150432,0.23572434486082788,0.2839094461071502,-0.1365197332675786,-0.1882620200368641,-0.11004852134185615,-0.20611152967522275,-0.11664304777379864,-0.1723603821300175,-0.15479106565248063,-0.25987222652530045,-0.0878947369012862,-0.06843836125372657,-0.10418416785252663,-0.10299134898588323,-0.021643879784852365,0.1455541084168785
0.48476146665683295,0.9920123637699132,1.4513465815964057,2.19790578865002,2.5307548150638435,1.888516769605125,1.0984220214209257,0.3544256675001175,-0.2954271420001488,-0.11599395795191354,0.3217678193160074,0.20591570346606833,0.09958004222180163,0.23066003754585682,0.24953574585940388,0.18739831629345985,-0.1902230497711969,-0.5424329480060752,-0.45976806476791093,-0.5627940630636479,-0.6839160278875712,-0.533996704224974,-0.5599979518650728,-0.7120060027911432,-0.7966845814791752,-0.8131713045924082,-0.8972161037048264,-1.1897380735866556,-1.4002094480204872,-1.431301007095584,-1.6620157919372687,-1.8660966955475324,-1.8802414590263736,-2.2733137694022183,-2.466486913057098,-2.2190024575596357,-2.2696426991971586,-2.190866432182039,-1.9735971593515644,-1.8495609464221139,-1.5315871982104312,-1.3632745753584978,-1.0240263324515144,-0.4761687686918322,-0.34646386404501467,-0.17466802193936706,0.20589722698249294,0.30061244667204956,0.32137771218972305,0.5922320142393631,0.7860980863432832,0.6573456856400018,0.651418152260185,0.8208393138641733,0.7869276583403323,0.7745528575470666,0.8298660913926286,0.6819425596884696,0.5407474938063854,0.5387604977800085,0.5678604969965502,0.5570557248399857,0.4859527977476949,0.44017481667118175,0.4064259009692135,0.39783285839006594,0.48488186537488653,0.5204323186454066,0.4784850815852222,0.5414078923855399,0.6335833997829817,0.6213894333004003,0.6678306879692902,0.8692534910681422,1.1146109595107885,1.2455347390814369,1.0956908593846904,0.8466485086105244,0.9379168387589027,0.8984153432789382,0.41128200940402665,0.3012655370882229,0.36056619311823457,0.1704416793057897,0.28726104610764663,0.3236421067820756,0.033347008549050317,0.006925567774545443,-0.05768708442066444,-0.307940425947786,-0.06776439479629179,0.22637568480000883,0.0697511165759784,0.059285586932399416,0.20828697617233471,0.1338459576790924
0.3297300991649179,1.2165751183841114,2.6112894767055272,2.222383722024386,1.6301791467410263,-0.24057733990202956,-1.6071038521005783,-0.6052973070955534,-0.08705798624648586,0.026720924959978173,-0.30464023449765076,-0.37441526771710665,-0.28059508139877176,-0.9544549482695707,-0.9691471605802806,-0.9598733731285612,-1.209612161910808,-1.3471742069591164,-1.3787071711926824,-1.1800373229511827,-1.4264039423618233,-1.5674262568377,-1.3153097114789023,-1.8218886521576192,-1.708052402531575,-1.5120891882549023,-2.012136521064924,-1.8671873003977018,-1.964577268011433,-1.7257207662192973,-2.178923678812369,-1.6836731950100954,-1.8240902488322217,-1.5152698978289443,-1.004951710913776,-1.055425704659447,-0.5175504253995242,-0.29991309953464246,0.12955243716326906,0.38142266626565025,0.47709379816866715,0.6096490277705152,1.0409653894231827,0.9123679573262328,1.0483548771156788,0.9246934808561031,1.146820763144472,0.8546369476518114,0.7910188155933854,1.0211439826060764,0.7849741806834946,0.8052171991444961,0.6596586465635207,0.6998364237621016,0.6814587661619402,0.9062411030692731,0.6583535513940294,0.8187603209375258,0.8636524362744641,0.6870346834418292,0.6435726057202461,0.7959351384903511,0.5630802469344964,0.6372399065470458,0.7760599508312326,0.42187277557469016,0.6381321457947713,0.5385870943954078,0.32298253357118495,0.48508990360158083,0.5793313899365021,0.2914867937222865,0.6933898197812672,0.860090023457048,0.7605022590113835,0.8646443661035423,0.7276776498450761,0.4482265240925416,0.5236491689779113,0.6002371693159847,0.004180036588300505,0.1897297714746837,0.3602741292125684,-0.17037369850296985,0.31500523635423483,0.12665248368951898,-0.046357272287159766,0.10032536623833281,-0.05316612391480157,0.11968049617094016,0.06231438800169843,-0.06043777526932503,-0.031115424797330586,0.0011169899467122176,0.22891348771549355,0.2409678854341648
-0.022702801152283503,0.2062871757901712,1.7540740233054763,2.3338978463007405,1.2589622642230411,0.4542284478397625,-0.5981388131271098,-0.10916522740591122,0.5420121919766173,0.23267062941105335,0.253615452663688,-0.09393046994936598,-0.294913901533497,-0.9567851035351737,-1.0981308066506406,-1.1856182635844121,-1.2822974192995928,-1.3284378633449245,-1.4706084741039083,-1.268442871256116,-1.3120422459116332,-1.6219260500467674,-1.6199779772678602,-1.5744860195993657,-1.4593213329840748,-1.7807326333664673,-2.0483629912447006,-1.7679041433680032,-1.8982620686298315,-1.7750728782914877,-1.980878589679298,-2.038143726544204,-1.8349971008237478,-1.7700962906970517,-1.521010069757945,-1.4243506169306668,-1.3272732819349633,-0.942124968741317,-0.6039178209363696,-0.20783138920859456,0.008996133655433204,0.12335233247115071,0.6471710383878716,0.5738857748916272,0.6408035877474085,0.7537367313103395,0.820858720368259,0.7018667276728874,0.6514751644076909,0.7736567731846774,0.7725328139022747,0.8526772055645984,0.6364594326971665,0.6574124386797772,0.8584341280449184,0.7673151373483642,0.7450079498697045,0.8015808820621161,0.8510246157892682,0.8276988292160159,0.6835731692474085,0.7988041822169758,0.8367338397761299,0.7681256699257072,0.669563400646735,0.7264823095192211,0.7876943570357725,0.5162456900594342,0.6263360185253191,0.6149680654076033,0.5923705317497125,0.6839430105478305,0.6055394393991643,0.7730135342096183,0.9921597794740039,1.0134124100876483,1.036906394987629,0.8462414180710932,0.6967631067139483,0.6872694109129612,0.5666803785231523,0.4409418053825985,0.39277557272857627,0.4188186589609398,0.24285784676122646,0.27203864804957134,0.3360161969331388,0.24995522908352052,0.39729388723438636,0.3285478474311141,0.08559300436741638,0.15764072545349678,0.2668844429416903,0.15869456859144995,0.19066635431866455,0.2546388568503304
0.12442579757916342,2.4462355627866006,2.7768853050046487,2.408540520499693,2.1525027998356334,-0.42049508155874443,0.5196589020177803,0.3481579697177464,-0.024195071775056694,0.6009576011851577,-0.41250666631370947,-1.3783781458189568,-1.2693020540091,-1.348108478599558,-1.4469097154504316,-1.7112120938890456,-1.542801157447054,-1.5951223771575727,-1.7777345721104096,-1.790591008001198,-2.035855672113734,-2.0144500928739584,-2.2148712858361623,-2.3002382694528416,-2.1166985308974287,-2.193109546741187,-1.885450561509639,-1.7281052091886402,-1.4384249080617397,-0.8466326883049783,-0.6058466916484807,-0.27309960717728493,0.04343914591370926,0.43068404822015977,0.4212758690138169,0.5125396857013286,0.7409846880864388,0.6548042265142888,0.5101958764052854,0.5512805894427942,0.4878546914629087,0.4448232124768257,0.4217051507088903,0.42320324370185824,0.4465538397562876,0.4940637549910516,0.35166147490809563,0.4472618067368734,0.3070408876502138,0.3215631323404658,0.34373799877298417,0.211847269667937,0.1923504680026796,0.3586486215610528,0.14337565310946276,0.19476909801004794,0.3072279947172427,0.08230599433419948,0.1273285456352635,0.09461027388249496,0.14455624813837117,0.03435534057718257,0.1435360909104503,0.069477703415542,0.22794056835112983,0.04125905454737933,0.20434099213035586,0.14720351206464055,0.09742988580440164,0.324107508992731,0.03968838053870399,0.28259994785617837,0.1875319659413666,0.5303281665708579,0.3111012205769228,0.2223521759474464,0.4038692120161491,0.7654825350478546,0.8484574674507626,1.0018820657214127,1.02658770778209,0.907257338468051,0.6051667813875072,0.47447022823048707,0.4588771315860999,0.1845796389858636,0.21864087565783571,0.30475759436682387,0.27826494058898177,0.22930683294045423,0.4172708348554809,0.4006086756008543,0.1383858967638375,0.26501839757144413,0.5990241145808883,0.389920753619291
0.5095710325747275,1.6456279158574634,3.171325259358022,1.7494172002333066,1.8219546887147597,0.6204307686266534,-1.392160218152252,-0.2560068007714952,0.5044545142772401,0.1538610964858116,-0.07566206322909408,0.1094087577723585,-0.20106463450878764,-0.7192756963610911,-0.9493403467231105,-0.8004611743716364,-0.9780587432859393,-1.111674329671982,-1.1363140977653337,-1.3709415147510313,-1.1872591311258514,-1.357380197981757,-1.6136286191708,-1.4985103753252285,-1.6474496314321823,-1.7117694072769307,-1.986495317331178,-1.9603495851407169,-1.8703046734463593,-2.355078446830851,-1.9927847606059743,-1.5915277089131457,-1.8567491871234925,-1.69082875585439,-1.4684974487675166,-1.304497043815401,-0.5608582454190714,-0.38296721405308365,-0.3130385688692069,0.355012352010149,0.31670178543747923,0.6295047325807839,1.0251111970851887,0.8174561590131184,1.0392606852670647,1.030899423018807,1.0378641928275054,1.1849415260316718,0.7483008622302475,0.8217322184609495,0.8855013890624502,0.5814938814273873,0.7925654806743634,0.6399516761914611,0.4145609830871104,0.6214845413948774,0.6452740595096059,0.6434339706233658,0.49168881218275234,0.41417483664253224,0.6802294454345504,0.5266442684751536,0.5020915750831512,0.3422365170019046,0.3665841093627788,0.5450222275991823,0.3803482452470875,0.4627171430384758,0.23130437283709254,0.4968606996161243,0.3365540734606088,0.16064780647172017,0.676469450861249,0.7790833976612695,0.9837216823420945,0.8252011129186105,0.5602187533784323,0.7034554609564777,0.5077808040577662,0.30828770738676387,0.17201924778027353,0.11645552577303388,0.1321450057435531,0.1618709939180604,0.01003112228815388,0.10922801393372276,0.0491869343059307,-0.014426794583844549,0.03202272936805457,0.13994126757743225,0.17920128213760528,-0.10497136849858811,0.10185670117051375,0.21217037570639227,0.04168317390532852,0.20409487569956408
1.165437679961428,2.5477067475773043,2.987926361197134,2.100415104029285,0.41844876625678085,-0.017473319803015978,1.2268990292843234,1.2276571883683223,1.071629013920751,1.3572714300511686,0.6849701127349287,0.035826229846764514,-0.3639396928121012,-0.4438269818395269,-0.8576309839281631,-0.8005935461386187,-0.7458813607473621,-0.9584450218105013,-1.0360264999626894,-0.9936307405786644,-1.1184750437858446,-1.277793298936174,-1.305556075321835,-1.3957243312500833,-1.522416614553906,-1.675321881270967,-1.7933157416712588,-1.8964497041301598,-2.0581989538612833,-2.1952741564582636,-2.165785970033123,-2.197179506137144,-2.1046803784665618,-1.9842118956622912,-1.6769004243757182,-1.2037036047752674,-0.9939758627965357,-0.6339766979543559,-0.11826683652446753,0.140752554969743,0.34566400642379874,0.5782524663862324,0.6913147643152003,0.7526849576241246,0.6936593979215756,0.7578310704710759,0.7788967648955858,0.6687796566588625,0.628678469461983,0.6490507931251719,0.6217560809568162,0.6092190429201835,0.6427858779258906,0.6498484082474193,0.6442213237810963,0.5563144969678647,0.5855360409943968,0.5924899641726808,0.6194273906056414,0.49487901271157136,0.48974619931394564,0.49114190766107607,0.3926453515993019,0.4305871123359689,0.4259222324732287,0.2756311469318662,0.26092052852372055,0.37506151935467186,0.26190760299701704,0.27695790522387664,0.3088871990385953,0.2867792419497102,0.23132797710772748,0.18159820975403693,0.4792186648446752,0.6554225060188105,0.6067021397271934,0.5885611882224957,0.6177661154767412,0.442987868713867,0.20149854872733045,0.1689280867517046,-0.016457247906042687,0.01344913734080299,-0.07363982762237593,0.0027236054348563185,0.048157565712831744,-0.09009396563762045,-0.06846380257481015,-0.012413222124695644,-0.011788093722929658,-0.0803255382025163,-0.05202364355747344,-0.054513221056509235,-0.08216823169265815,0.03578215368235584
-0.19543377755119012,-1.1064929670273824,-1.3285267195792467,-0.8191601349479238,-0.3425059030877431,-0.38622808882462134,-0.6267711262197154,-0.6455784373458542,-0.5554660435521158,-0.5868132375113092,-0.6776831771833391,-0.7122927371043902,-0.7380547152604512,-0.7711386584639379,-0.744580181016212,-0.7006672693149657,-0.7427683698009107,-0.8503885888506624,-0.9052742699731013,-0.8943209320223733,-0.8879158147220712,-0.934206221620746,-1.0183988425660697,-1.120992784571494,-1.2205865598101597,-1.286925378821261,-1.2973182500341303,-1.3056983104186934,-1.415537386261631,-1.6000806648593229,-1.693069549588922,-1.6276119321820228,-1.5660287469253802,-1.623295893980288,-1.6955435688315654,-1.657413856798324,-1.5607828530495789,-1.4675495921963413,-1.3256796522926615,-1.130028569124915,-0.9886385352739914,-0.9219194806859005,-0.7702424685915195,-0.4380837975362628,-0.06266270360986023,0.14823351110586572,0.2099503844772048,0.3006431187889921,0.4840287823611871,0.62108171803592,0.6554333510717257,0.7042468635401409,0.8291995923544928,0.9263730789297355,0.97798763836824,1.0849109682871303,1.1859129973785527,1.1101520764783075,0.9277582623092815,0.873376100547473,0.9319084846262193,0.9315821304158564,0.8880705946860058,0.9046150794111927,0.9046489965251849,0.8487181174151203,0.8800761479626016,0.989750875584833,0.9159948743052819,0.6480743124272628,0.5491097227738924,0.7527381734781218,0.9095498284997106,0.7687618887633623,0.5700706399561317,0.634462230608306,0.9184823136271132,1.1660725914672918,1.2565503632522226,1.2646756934445602,1.3005705350620342,1.357330634330997,1.3079368014495203,1.0939968142595444,0.8713836661240458,0.8170461072771112,0.8590348108301727,0.8233495637078801,0.7689934881674144,0.880702267537296,1.0916018076179623,1.150726856572124,1.02734898158984,0.9347084258219933,0.9689391675676766,1.0194853178104315
0.9927304661301073,2.8280591372912447,3.870474297930963,2.392281519669048,1.7087366690023833,0.07898880966197004,-0.5998033375299889,0.831360185373882,0.8757690270102269,0.8141603483418312,0.8473961547238765,0.6087920613192157,0.08951030157653096,-0.5952290205843772,-0.6435486341542228,-0.586879399111991,-1.0271768893732673,-0.8770630896225462,-0.9833152954480225,-1.0940419567454969,-1.0665336089802127,-1.2396797730451592,-1.4047150824709467,-1.427617176517751,-1.292162435933428,-1.627775497252996,-1.685544062966956,-1.50958480903125,-1.6756507001235263,-1.8654183611460364,-1.9369826678045865,-1.5354322837674927,-1.6207916276960657,-1.670658832742088,-1.2278623628844652,-1.0367796346203428,-0.5651784775518116,-0.14168258472738912,-0.04464857102412788,0.4100431705850768,0.6468177101143867,0.5297724432485362,0.968977900948598,1.1231718672061912,0.8717014864355934,1.1157269902826474,0.9531995267527565,0.9107357723032431,0.8135473573211441,0.8675436845189449,0.7720400473961926,0.5816295796563236,0.8416687162121027,0.42465315347664256,0.5629302422785337,0.7463629724827028,0.5535663141271543,0.5278700087929858,0.6426041369620215,0.478977091448057,0.39927466778710646,0.5479950008969084,0.3347813154394548,0.36876488662684015,0.4488152069939343,0.07887871173389857,0.20735796453063882,0.3360557907110193,0.10880249080888753,0.003471962656519635,0.028228032408737374,0.28920222278747754,0.24258096799613008,0.6981358921184759,0.6774703573168316,0.4941754367504492,0.5097256695990319,0.10151610150291968,0.25696917276902553,-0.08057288873151273,-0.40924189138542827,-0.17229375534033015,-0.4428472877552822,-0.3223100559534851,-0.37508849336743755,-0.4277228282824715,-0.2431644801352334,-0.6950651920713681,-0.4057602202031539,-0.2953878791553747,-0.5621137436032408,-0.1954140689229921,-0.5628233189845562,-0.710085628338123,-0.3086888464066083,-0.22366425052226177
0.4777710958958103,1.350163612719409,2.799450343339561,2.902929809923388,1.558154032277186,-0.4075175842952545,-0.02449610795585186,1.0621185502849255,0.7687354729009679,1.00556171222042,0.6221726362872735,-0.2644832735347673,-0.5757121209797291,-0.6873988255070353,-0.8597758932396797,-0.8763947262733583,-0.9797470589679351,-1.0736381051158939,-1.0101158940885457,-1.1625611585591307,-1.227101285109956,-1.3135931429245837,-1.4524800058403076,-1.4587258212960346,-1.671432167276179,-1.7627938551934468,-1.7649666012061307,-1.9371429005323473,-2.084166151415159,-2.1416515383331465,-2.173944571556921,-2.1816135185617167,-2.02488468542765,-1.7439897607922874,-1.4797416653858715,-1.1253946763349432,-0.6821124301132893,-0.24734489746336522,0.17333256728643595,0.4900755292674836,0.7259848605212889,0.8835770822439435,0.8621990468020339,0.8993937664813413,0.9353424896050544,0.7516828747592699,0.6797001532068302,0.7194874814078982,0.697418236491425,0.6539777415663658,0.6594518873870522,0.7010349327678638,0.7258590937711977,0.7487173388220447,0.6927179517494303,0.6852818607113129,0.708994366686366,0.6756177952595043,0.6696133904426901,0.6098096873491162,0.6902221587955805,0.5418943254232339,0.47693260733439646,0.5627835080910305,0.41935538083293566,0.4360023407443023,0.40289450263453647,0.3236507140137529,0.35162162726027424,0.3371917750167872,0.22890109442174272,0.19468683863297231,0.22861609616965795,0.17644039627358035,0.34933241305427587,0.6230351804663812,0.6820273055244779,0.5706714587260302,0.45460938616174457,0.39873860064247657,0.22027589389051713,0.042640181678546066,0.008946289613094,0.036154588108901445,-0.0625753083662652,-0.10005432463358932,0.04238173608361823,-0.05212934888795904,-0.0681842983389556,0.01022313888059868,-0.01936467577522664,-0.05825575278018338,-0.07817028485262317,0.0760354246074154,0.08100147818608046,-0.029939424788513386
1.1746975289053116,1.8660797023466504,2.1658464739055456,2.3340139385027863,1.926497501975573,1.221258367972578,0.5295891656766352,0.31081256193120665,0.6210407928637408,0.7694692912724064,0.6956563225406158,0.835939918554874,0.8630374107077408,0.3807008159404787,-0.2199778771100641,-0.5504743380281426,-0.5813257329293947,-0.5733564576536362,-0.8307643124359746,-1.047292022537735,-0.8031645976943783,-0.7975586737563487,-1.1777509746061654,-1.2214900786723017,-1.3123289359966934,-1.5216778486702682,-1.4634777296918593,-1.629271297885406,-1.8215599223327008,-1.773275583208635,-2.073600469221619,-2.2979138256954483,-2.119305841069091,-2.133627327367841,-2.124246340182041,-1.9471334629540384,-1.8055014656354997,-1.5260280653490668,-1.4244398753869563,-1.2095171564929457,-0.48673636054701835,-0.2482884539485785,-0.21598795186046202,0.17893795737517726,0.1540708321199615,0.34834163744622904,0.5631565835545357,0.43400396310395983,0.4352008733271322,0.31267315789803624,0.4675524822935733,0.8126732407802241,0.763765063997804,0.553203468738332,0.4914180172795603,0.7279339853628878,0.7548750506602055,0.6343182673695543,0.7215880772534896,0.6224857986331471,0.4787974229791219,0.6286933643232878,0.6505561108180741,0.5363882402051673,0.7750740993836276,0.8127219953750067,0.45331114452764837,0.578443340462525,0.7082155664715782,0.6094038049211774,0.7364766950932399,0.6180188624491896,0.787395370629582,0.9076184513370572,0.584748586234625,0.6514327988522155,0.7266589572106317,0.5469178956965393,0.27990882369489617,0.11736388975539289,0.12711860855455945,0.15939927707246843,0.27107458159273157,-0.01810202047279726,0.013987077671344305,0.2035143946680573,-0.17894995071857892,-0.04762305930133481,-0.09056619886879866,-0.31075253920924284,-0.028864147924586483,0.0010456109865779855,-0.03161515659530114,-0.023238613581711223,-0.009667554889581913,0.04132899922596719
0.15137488462475743,1.665290085612497,2.7209755372518436,2.682713936542544,2.1729960077642296,0.4559626610904958,-1.1307118363387836,-0.03594349927073184,0.7231159057712524,0.17008876785309723,0.5286856077145903,0.6479856482558554,-0.032367226100251174,-0.6565598918573538,-0.6508387361872376,-1.0037882257878197,-0.9925742568434051,-1.2412526766499898,-1.175030265589919,-1.1385283539137614,-1.2881685697644414,-1.2085907170662047,-1.3544185246574219,-1.478316314480858,-1.669627132725607,-1.7423510946515712,-1.6849981998881096,-1.7319141935274986,-1.96705619665071,-2.1054961250009865,-2.0070764811437742,-1.8973383324595108,-1.9625749959812222,-1.601754202714656,-1.4088054311362308,-1.363131121526397,-0.9638980105115496,-0.48584121503801614,-0.04485959781818769,0.1321317375998172,0.3507665407154777,0.6568854627686652,0.9331503380583032,0.9082384490657252,0.9755807179834425,1.0275009737002683,1.0827036400479115,0.9781779606918956,0.93486237827101,0.8534889591893932,0.7728574141474555,0.7601880149986115,0.6595434828544069,0.8167516583192909,0.7286590317768329,0.6096197529237695,0.5416594365845405,0.5991113886215386,0.7701113040588721,0.6553830673133771,0.5845745477589119,0.5122223169997944,0.6177526325299499,0.6924176606340142,0.3925764606206023,0.30862427531406794,0.33685125559468576,0.4265294418733297,0.36841980543191405,0.1682138470839551,0.41501646150194677,0.5411668141277047,0.38144635963164897,0.5476561813711578,0.7580975285532244,0.7230435479211493,0.5046975730562756,0.3115092002890189,0.24628053855234266,0.18804436131944352,0.02282785363034953,-0.1919038848213491,-0.0895573830526889,-0.03617306807078813,-0.13632864289738286,0.03912508016393552,-0.11581807745885511,-0.22877348656186083,-0.1291041367850714,-0.16278184054860392,-0.014298031412392602,-0.10123886533501912,0.10244713567112992,0.012352402197946775,-0.10465148591754356,0.4659862941434945
0.43936509048440414,0.18370029723661782,-0.3906155012123377,-1.0819628747458578,-1.2544728160572338,-0.7346622119631776,-0.17888576540775636,-0.11305959327454035,-0.23817008620574234,-0.10207626871034267,0.06672073978645071,-0.1500205320967868,-0.5769376795770625,-0.7157439916309601,-0.5430609162189329,-0.418097722479326,-0.49224578123423246,-0.6173568471575809,-0.7293830945836578,-0.8708404905114526,-1.0003971612387188,-1.025101848312348,-1.0003971612387188,-1.0434602151075765,-1.169780957924379,-1.2978331422726312,-1.406918281326298,-1.508397502523918,-1.6101788011601126,-1.7189175312775637,-1.8473161245620318,-1.9309033141516272,-1.8811929281301365,-1.7382454610994313,-1.6609939562498006,-1.6775837878114712,-1.644055604728217,-1.4892502160155676,-1.3391647747150266,-1.266067362401719,-1.1528426064027957,-0.9246388236600876,-0.7463214662102288,-0.7594730232138129,-0.8140749929264879,-0.6300816657470244,-0.20429333290010662,0.18161916965597502,0.32079642878344455,0.3352689437868063,0.43936509048440414,0.6245751313029789,0.6934407754604004,0.6326904291246647,0.6595640221547647,0.8889757326570061,1.1169002169120816,1.1426934081189464,1.0491467103008103,1.029468048970395,1.0491467103008103,0.9605328214509165,0.7950710554822953,0.7550455837688095,0.8967013254516962,1.0552029357132418,1.0660851623473313,0.9714490255140371,0.913639707130761,0.9363289194607302,0.9475164704888905,0.8908781168454595,0.8458861904669958,0.9037937619246355,1.0152700072576433,1.0588003211431338,1.0152700072576433,0.9751519822337764,0.9983316054735911,1.0516158038270218,1.0660851623473313,0.9918916663204664,0.8458861904669958,0.7356505133408776,0.7611942921241657,0.8585844805253113,0.8628245721460606,0.7674443497219748,0.7611942921241657,0.9286263870868084,1.0999618653904983,1.1097583221696652,1.0322083587792268,1.010574990030149,1.0152700072576433,0.9423110177839089
1.624821163231952,2.1107488617336103,1.7972970265323702,1.3350336020936073,0.7633713807258975,0.23156510580312573,-0.18167033611920425,-0.15535734051932856,0.03106849005257958,-0.07554988661295847,-0.33863982564442485,-0.2377640355777315,0.017538029431054536,0.031230558368006405,-0.1201692896720801,-0.4283361770491452,-0.7920145536017379,-0.8375296217948084,-0.7028526631345011,-0.7910097264271938,-0.9237180851230629,-0.8542399224366107,-0.8255766939979458,-0.9473852442516772,-0.9630963571679533,-0.9122963210457199,-1.0115309811857705,-1.1318826536715878,-1.2330263225928724,-1.3817875488364928,-1.369255004300029,-1.3022599583678138,-1.468029199909405,-1.618670544067099,-1.6290808061140196,-1.6995898017764577,-1.7300714760797773,-1.6907829124894942,-1.708582260098837,-1.6552639335465857,-1.545715072990299,-1.5270246723311591,-1.4476615406609312,-1.2429635142819022,-1.0778576368057,-0.9654676600337324,-0.8324945287038539,-0.6298032313982194,-0.38930093630244134,-0.25422843211637364,-0.15989548857963432,0.02587569746000064,0.14181365667992687,0.17183558017963127,0.30967931564453216,0.4164170264691343,0.3763336423521331,0.4247555198078208,0.5537230339360689,0.5203358169843502,0.4168262232814654,0.46472275741153957,0.5716042088448855,0.5468828748496981,0.46269501862611817,0.4861068343599007,0.5362769711685815,0.4849384028488783,0.4482122400313759,0.459868709733794,0.42012519037943474,0.4745928688094898,0.630454724306147,0.5961492321514404,0.49093583122311446,0.5748188154149454,0.7118797129257294,0.8550251637744521,0.9976822343172376,0.9883031068211169,1.0123282453061877,1.2259456483777222,1.3618729563209697,1.3827428381593336,1.4609219871106418,1.4738541182753704,1.3839784906963488,1.3989515796758363,1.4444431350859255,1.2725437823045265,1.1485218438100075,1.3338804805306315,1.4222281290531424,0.8118666916487417,0.11710140008663439,0.03670624220940699
0.3158689963891722,0.7851626215587139,1.2112937335690892,1.5427531029958748,1.8871862208909371,2.1695428776409855,2.1140114946690773,1.6867173794961883,1.1748100168552467,0.6931586700885616,0.16381215077126626,-0.22705364698098393,-0.2663719457850075,-0.1794738971639183,-0.21828768141027421,-0.24035763997481427,-0.09564711760423314,0.0675357919368046,0.044973556720520724,-0.19340804078263812,-0.5252626943697134,-0.7566629284331099,-0.767380635933045,-0.681498421965578,-0.7117115136914077,-0.8421602726238402,-0.9017226754427446,-0.9003770988882576,-0.9676986899211425,-1.0909009478747027,-1.1848710565501561,-1.2446373541003346,-1.3185474098694658,-1.460221728287435,-1.649923645172718,-1.794209701998825,-1.8821778687399306,-1.9005845879947907,-1.788113568197789,-1.7191772852995195,-1.85101373068287,-1.8997179625062968,-1.7348131351697555,-1.6631635836762027,-1.6256952251969274,-1.3402633095506948,-1.0767341694450014,-1.0587859444312993,-0.9506682274317764,-0.6514945829502049,-0.46638746997289376,-0.4426050891984715,-0.3799959162507462,-0.1806814328738631,0.06839879852753877,0.17066249302289055,0.13305532970954576,0.20648540905831825,0.4012568287126986,0.4990359780675702,0.5152103802394019,0.5639979673412255,0.6062913921509231,0.6599682307559332,0.7481878505763708,0.7477231539465529,0.6723050632710085,0.6791228756527712,0.7274464295893663,0.7260093552365232,0.7762288195519075,0.8918452847566425,0.8918041499521081,0.7805273764682783,0.7669321024147727,0.8158061510155704,0.692848037978366,0.4855358609201554,0.5397024067595001,0.8336946039012761,0.9704508804738821,0.8947016204433564,0.9118932244079639,0.9570849440133994,0.7852648252629421,0.6435513021192436,0.7234005622090617,0.6964545711706516,0.5417361368279686,0.6152965065485816,0.7399412169391556,0.5741972677370936,0.4489126457501729,0.6750746258314415,0.792118293840131,0.4034722676586757
0.5375422256134116,1.1572714308814849,2.6793646509792084,4.199534426915586,2.932208392576151,1.486600978811522,0.13633154681216977,-0.63750799751338,0.37785953793704996,0.9128463311519676,0.5879109695163993,0.27466808561008216,0.39234673962170996,0.08934966599540929,-0.3788206910151599,-0.5198753839233001,-0.6882629984376676,-0.7551475875341487,-0.8344985355416357,-0.7318356232330393,-0.9236103042296043,-1.1932042749651945,-0.8431342107499378,-0.9947702893014647,-1.404789666834083,-1.3088373068059815,-1.4296850697991548,-1.6423299945132703,-1.65986656992597,-1.7917716739858978,-1.8920873189425647,-1.9611127675360318,-1.8150332451356492,-1.751779536375347,-1.4792461762462483,-1.4105344659838965,-1.1554936513447074,-0.7598332056760178,-0.5677853280557834,0.0591057010176564,0.046753720386216724,0.04611373741646513,0.48452071907228533,0.7794552875653247,0.5721788368435852,0.9183820283785025,0.959700381441975,1.0107006431096959,1.0432132227174842,0.810305094228178,0.8556621472483038,0.8282712629628964,0.7168517741032129,0.6076724533266442,0.7258577831826551,0.582914176429331,0.5282910965254494,0.499328263576479,0.6243047164506934,0.513277294953719,0.6447270914125189,0.5539982082063991,0.3340127514786054,0.7771475365664748,0.36642001110897965,0.15592966754587023,0.6039312167136638,0.11656841439294369,-0.00524999980850891,0.16567757077183468,0.04840942642801904,0.04577082674837799,0.06700057579076038,0.23173371375028115,0.6063940776916582,0.716126667621316,0.5017240342109343,0.27444102993289865,0.14279285756169152,0.07195230053243015,0.05603810312362883,-0.14972010538785815,-0.32208793445002193,-0.2042670678087791,-0.3784767549927064,-0.3990995565756718,-0.18954182307122558,-0.5539398675220386,-0.22828195273799567,-0.542662648258665,-0.23329582501200935,0.11007340768424546,-0.691295483976144,-0.31800731559427375,-0.4351726189056434,-0.38561198492575777
0.6013817654739665,1.104496443861722,1.6923661803897532,2.4919261564216013,2.8171236269717888,2.4514976400319055,1.7266735322586162,1.0146068433089792,0.2587017717598758,-0.22272157520496716,-0.1362934704701194,-0.1922727423963794,-0.30858317165207344,-0.16852052911584203,-0.09851956939473132,-0.056554924391681416,-0.3250976497161417,-0.6334891600922201,-0.57270961127712,-0.713131419364105,-0.7542617807654861,-0.676861589499363,-0.9852463345471182,-1.2134501976530307,-1.1875817132740654,-1.03178444503729,-1.3063091038225434,-1.939007735373505,-1.9176500060096289,-1.8786353728720109,-2.001061880086678,-2.0221955393638935,-2.41526463331058,-2.1552866367193118,-1.6705380956999223,-1.9495377226223591,-1.8821007690574976,-1.5628522638094575,-1.3080243608385547,-1.0217863352350582,-0.984417134491561,-0.7099619283859282,-0.30496412309895066,-0.012712710786830205,0.1705636775157644,0.09180908058759259,0.2515942263905282,0.38929816183551014,0.25928313763344424,0.431545475927292,0.5202285661224263,0.4067995736352519,0.5146695068970535,0.5803591963056646,0.5246322017636501,0.5554628282865209,0.6053001772922645,0.5510528193642319,0.4160249482395653,0.3760043218380409,0.5213871059796513,0.5539106629298178,0.4169545526031335,0.4833245847392054,0.5985609150855412,0.5717226364728207,0.7257589490567987,0.8475540591362865,0.6200644558718945,0.6112094955588895,0.7803749821947135,0.6200591582076651,0.6026675497976316,0.6925424737094356,0.5335133890329626,0.5474795398153516,0.6632834239087834,0.5678204795369871,0.4751152558925919,0.45658862040831677,0.40862685564209966,0.31738330480527716,0.15629160924224694,0.1509117960337088,0.35625226725533143,0.3806804906385045,0.39670155209720487,0.5285422298021242,0.28081440319768025,-0.07002344456330427,0.02768854927119344,0.153828034535742,0.042453601892845555,0.13497367770129984,0.2977049852645443,0.06326217256801876
0.6009673027663273,1.2640283154122964,2.7729760907151935,4.1084452665174975,2.4650838878298065,0.8209227126312253,-0.7804181965565503,-0.5066097579593455,0.590446573868493,0.18268744922550414,0.11440321119624246,-0.019856622206801393,0.30416050751241824,-0.35906367721274385,-0.7259164804,-0.7385539830200997,-1.0234550469393238,-0.6884237747328487,-0.9302911984080892,-1.1094433751410668,-1.2671708226476595,-1.0226155631829534,-1.187040987301562,-1.7350506757432946,-1.4399136801277899,-1.97861978556724,-1.602502312581161,-1.4863979192850065,-2.3638565793444375,-1.759365547196661,-1.9725742158021697,-1.8813078257361926,-1.58900885016737,-1.563795788393902,-1.196060587354288,-1.0258826236645762,-0.41030967210066627,-0.09386223406067043,0.26866009553693554,0.4561422813011658,0.3426172774914744,1.0721253042442351,1.0483900595827775,0.8465298623187272,0.9451077527976874,0.9891041203719017,0.9821271770047302,0.8201560994023359,0.7819837948925381,0.8229037877398248,0.4747818464932145,0.5489410031529741,0.7150624438137902,0.34726750080358443,0.5935187064430414,0.45893373819661454,0.3724900420786959,0.8562583843384839,0.22391275641416866,0.4004971040285413,0.286094758770868,0.49997599952586413,0.7048852086287467,0.07569452672806812,0.3525534438229493,0.2601106204612682,0.2317714643265893,0.29029209713276855,0.07777301954873328,0.23814041276437758,0.1677964087051314,-0.0700040303109265,0.33888721925088994,0.618642381441732,0.5900721787897928,0.714968131317056,0.6404609472698064,0.5457947937516902,0.3514016893994987,0.16388623993331855,-0.045409708577453405,-0.1672862920595712,0.10649543706163477,-0.15780046739737702,-0.026342686218236117,-0.06406262549175341,-0.3720171096076634,-0.07537524461411106,-0.21494463233393277,-0.13350833468496273,-0.21796612044476912,-0.348395427968547,-0.014096649821790071,-0.18513284617403905,-0.17777356625807372,-0.1198459099555559
0.3444369613884013,0.8868942237112378,1.6512289622384513,1.9732270245441745,1.783413726324546,1.6519569638366258,1.252457391431295,0.5647576782514625,-0.03316833087310442,-0.34826873284452864,-0.1192309357016199,-0.05295687795457747,-0.4106798514623084,-0.2681016934467505,-0.06882099279195285,-0.3005904686629776,-0.4343792689685461,-0.6438511335148189,-0.9250237668983602,-0.955596969060965,-0.9809015587184716,-1.0808546803262529,-1.1408044357941485,-1.1740814069411911,-1.1971602236925973,-1.2659571789195834,-1.3728308694896953,-1.4414519060758633,-1.519734595465641,-1.6478228678191744,-1.6833018377245728,-1.7017793265067387,-1.830934771597944,-1.8512325659503588,-1.8000427545957078,-1.8873222248517403,-1.9089530804018062,-1.788362158945131,-1.7166107758017755,-1.584118706981406,-1.3156822414083134,-1.1488565838216782,-1.0321116459530386,-0.7524138541391544,-0.46146518062549646,-0.2869074866226581,-0.16292865361364975,-0.1518609082452146,-0.13934040663591535,0.11091472667370549,0.2698666780495629,0.1979436887852128,0.3433843446616954,0.4758405763418069,0.3734397328181754,0.46822765192417803,0.5437341240069821,0.36632279844271626,0.26667158338006053,0.3320221617509994,0.43494856975344554,0.28908859420470867,0.10108332746044675,0.3046571224997863,0.3979988194858696,0.27607336916745373,0.39627322851183716,0.4313921985106652,0.3414080645982502,0.5496148831196587,0.8263473601664303,0.9015592338670733,0.9603817831045561,1.0702429742955113,1.1484148852040423,1.214258417764035,1.2160062448542668,1.1762842178572717,1.1096548818599783,0.9003441788936828,0.8085946260269542,0.8804693934787325,0.810267612301135,0.8364157871300806,0.9498090225289145,0.8519534241118306,0.8100981373088176,0.8462916083132693,0.7547203163184052,0.7797688689598182,0.8986090380505773,0.7423596594124002,0.5625129966045976,0.7532215096036218,0.905860605474978,0.49276795048103295
0.5597889928602883,0.8225796980743603,0.9729247454213733,1.3475288569035375,1.9418840620336042,2.3785968632385512,2.3498236101703767,1.9097926818044948,1.3762503396285264,0.9044276657169031,0.3630394727423901,-0.17791256263015182,-0.35146490779324707,-0.18107106624167876,-0.13807431850916843,-0.31546072502614486,-0.39727009109240924,-0.3464687178385206,-0.3151919012363432,-0.28036305604696904,-0.2803052039450205,-0.4360712696881932,-0.5980939975340033,-0.624437331637919,-0.6829607994389031,-0.8213078636764526,-0.8646540863567025,-0.8475870226598055,-0.9002994855667855,-0.9260590914594157,-0.8939581412561872,-0.9698952626360811,-1.1200969111587162,-1.1681869358312906,-1.1638044506244287,-1.2297260914640653,-1.3477410621161536,-1.494061040674164,-1.636063171560591,-1.655591749209831,-1.5673507573859489,-1.5487636963081248,-1.6192308738044248,-1.6365301098986467,-1.6087680371840782,-1.6436575290686837,-1.6584645508944287,-1.4797471941953517,-1.1820903389873298,-1.0102291851749587,-0.9753926699327979,-0.8855750952402617,-0.7358583488621433,-0.6433094914930431,-0.5278484674739959,-0.28244464604778413,-0.06271112918533028,-0.02206519432744139,-0.01913223952505952,0.10437652254171766,0.24507611159358658,0.2391164403684415,0.15732213293792324,0.191934648460237,0.35492485846900707,0.5041961687933563,0.5470401286722583,0.49099583705526345,0.44525736210510747,0.5501083910467405,0.72222665749361,0.7118770823211619,0.5823697790513762,0.6320642822629617,0.7959364679222376,0.7702822121648674,0.6132597053238066,0.6046871697993266,0.7586176200130272,0.908907237909103,1.0267183942489397,1.1137756044002833,1.0679061756131014,0.8979979800905926,0.804044658652068,0.8428019078498477,0.8236509521310501,0.707142297415796,0.7469924738469468,1.010951761362898,1.1708628120938822,1.0714517907092396,1.0525374204325548,1.2761176497123654,1.2307692416800045,0.5724129447600796
0.5456388508864908,2.0748848868844254,2.8207005132599288,1.5676568576392456,0.15950356423714487,-0.7086115060917507,-0.02363646137164703,0.5811310299593835,0.4205313935732715,0.5402908638619218,0.11090280254700849,-0.18860613395302714,-0.465395831281423,-0.6820488869073094,-0.6700990552521264,-0.7310241341495378,-0.7761513772318097,-0.885931777120236,-0.8541542659293367,-1.2744068118625158,-1.2259428344557208,-1.1397914545866779,-1.435440323934179,-1.572475014896485,-1.831175139027268,-1.7577007580585071,-1.9391711911060414,-2.146754484712238,-2.258184770253047,-2.2272783780186787,-2.1623862131195777,-2.3434660062574593,-1.9516104485275974,-1.5506365752329196,-1.39990425567329,-0.9454529749939066,-0.6258956564564452,-0.145073759224488,0.3302875328946902,0.5728566413553279,1.0043809882883585,0.9729425276088536,0.8377104498374623,1.2268438425046775,1.0815714344357534,0.9604160547509579,1.093409753777046,0.8672446666135827,0.7403121589432538,0.8624436257249968,0.7851481611747162,0.8468020860836938,0.8169532262511623,0.6580114672500159,1.0175434824299323,0.8571638750284443,0.6167472467534602,0.8347336048440118,0.7504035358043796,0.5610043289426448,0.7379622980415417,0.7199279632974427,0.6605152519370241,0.5866959799579626,0.6341389456729508,0.5970991952297251,0.41696897071010686,0.6189684457868334,0.48770087052622124,0.43853871726648963,0.44398168025262325,0.35458509401524324,0.4043676871932397,0.3223626192381148,0.705461117873391,0.5970722143363255,0.7064233023713923,0.6613377369284775,0.027925412153869893,0.2100642204364261,0.0686238250202975,-0.11860765403316494,-0.10556975049993494,-0.09112834592723047,-0.1884626848662864,-0.13147030238922336,-0.12119196924812539,-0.09078412340776866,-0.1218168724736441,-0.24926428898216746,-0.014882545691877839,-0.032001362630013304,-0.16515215800844538,-0.06342412835092502,-0.10658266993422073,0.0018523337363310635
0.14842195314273224,0.8088924108925954,0.3697020615095071,0.24517399954861718,0.02675358642823745,-0.2758425539206996,0.09723835687392347,-0.7516557668447363,-1.618227439214437,-1.1857852384696101,-1.0614693645485664,-1.13470278737801,-0.6896399520420383,-0.8029818099669198,-1.7232780102776002,-1.658519141324961,-1.0381198339709052,-1.4313925930168263,-1.7917899778031314,-1.0305069798655444,-1.808351762969319,-1.803028967484262,-1.0911763938016092,-1.5826544782344902,-1.0414981755736685,-2.1412022989025505,-2.0493228068353955,-0.05530151495308795,-1.1461802222128807,-0.7079722226322301,0.048978848106012364,-0.478352052703655,0.5286256459000712,0.2460625997935598,0.683500980446286,0.9334757816745597,0.5760490596035835,1.2380717731888107,1.0488011072103045,1.58852332110078,1.2973461020306052,0.7544576340522743,0.9826982901995276,1.147580731569996,1.5379354527058084,0.852131433827766,0.770785417266996,0.5686516605985648,1.0903193140935041,1.0629190306005294,0.5057249893295759,0.9582923832548359,0.4565824986555259,1.2052636501129437,0.8541803934359574,-0.13843765951081366,0.6344334411662619,0.6977184737879359,0.5177747528483867,0.5621650074824047,0.5586291433012639,0.47215963199818783,0.3908622795600678,0.3449305855740513,0.5384094365738041,0.9054365315160199,0.6602939037587455,0.6936551854128112,0.9575968411539736,0.5506453622259253,-0.1685729652111567,0.01159247453764265,-0.17741430443047884,-0.2791642597732027,-0.2260161719861409,-0.9155036658647813,-0.03813090753459507,0.07204388003993167,-1.0544259842188966,-0.639557332039653,-0.3886663465233565,-0.5101764085754538,-0.7204179036206896,-0.4661921540623998,-0.4628593100467287,-0.7748386371271249,-0.5363040463490552,-0.4023290527828065,0.1770084610655904,1.1176040944323276,2.4512284424521797,2.749245076752134,1.7451676130919362,0.037050023124769196,-1.2717152625861017,-0.20911639181977565
0.5291754346116623,1.013193258898794,1.7992902300110736,2.3703920036607053,2.3135550028140437,2.0979801785604013,1.977884844894282,1.5220025433307496,0.7543933045151566,0.11600544526075085,-0.2290313549400599,-0.20216818640589765,0.0014134070123854908,-0.09086792630884177,-0.3653974640309903,-0.43723541934145654,-0.4238496895247243,-0.385916976211746,-0.24497478095762257,-0.2948439862174528,-0.6021224034523096,-0.7965571549795551,-0.7985800786166097,-0.7461291919058048,-0.7042927333707033,-0.8458762073601356,-1.1173832376533457,-1.1955571591594816,-1.1782316861404225,-1.3391852802250135,-1.5204997983485855,-1.568610229350254,-1.6380318466273363,-1.7628316468546332,-1.82481663028777,-1.8267336408504242,-1.827909380522202,-1.8403420032467637,-1.8195612870677909,-1.7080240434510163,-1.5538843312210868,-1.4643127917493346,-1.4440863700770465,-1.416903622713323,-1.2684391463683018,-0.9192107176286751,-0.5293372318110242,-0.39852500490016574,-0.5040994610476335,-0.4526520142653244,-0.13215609569703918,0.07005154358038493,0.04528853902968649,0.1254930290943918,0.26432563816263727,0.24408821906216058,0.31064638348778995,0.4615950320941802,0.30051412317594456,0.097129954100732,0.3227446200594614,0.5540716517941022,0.3579407228874241,0.1963892064731703,0.41745743710434186,0.5759150070374044,0.41388497181453254,0.33239287290108827,0.45588573836036606,0.4610481764328882,0.4009165813293114,0.49660827000790453,0.6108483477306149,0.635211038858507,0.5983620748467828,0.5355432169501259,0.6076104998010526,0.6915100503433849,0.548954007633836,0.5831854228968006,0.9454834908389378,1.0228186222120978,0.8933737254518512,1.0344487543587009,1.0445919216262909,0.782962532030131,0.7836529071450309,0.8556791456638794,0.6630183677653813,0.6345882969217169,0.8351758883655559,0.8314354861147624,0.7437967396208893,0.8284198083500935,0.8111745441788552,0.4976499496227157
0.40685724414149443,1.2875824117388748,2.528350863417302,1.3063403651490797,1.4610619159527756,0.4767647287059347,-1.4038929834553195,-0.6504775631333002,0.43421254260224135,0.13314037372778312,-0.4087434656987031,0.23177665913683784,-0.1219896970349738,-0.9234620892694979,-1.253315673741062,-1.3554517248102502,-1.1965315489257184,-1.0165783392366634,-2.0144394367729026,-1.3340028193376776,-0.9811578546415748,-1.8733997321157372,-1.4955008567294512,-1.6246236315746143,-1.9678393928902196,-1.7095911290265704,-1.5264498714572836,-1.9075454398684597,-2.1886036163387694,-1.8826203820436636,-1.7846096733755898,-1.676915397440608,-1.943492152408413,-1.4974313376366837,-1.1567737349404936,-1.083815750768336,-0.7777847269177572,-0.5229515364540698,-0.20633022044931237,-0.026747868366369016,0.30062369607898665,0.19533971663227823,0.7054771574186041,0.6754179492309956,0.8582684384174367,0.6804051019771319,0.9036347598423875,0.7763120951125079,0.6532744767525682,0.6421696778612825,0.6737686265225465,1.0428817932296732,0.43532651975395914,0.6606082937012938,0.5317902602053431,0.5650210301833695,1.0337495047221517,-0.01978980961447731,1.1839443170477395,0.8523551996809923,0.17032143198008315,0.6769687876577941,0.6385994442196883,0.7521477195452163,0.6435271063075814,0.5944199302639561,0.43394680492893006,0.7212661671032018,0.5985419251846391,0.4608945652389787,0.48610490278501195,0.6591547634143725,0.4933708352431807,1.0724707055478588,0.9340262331072027,0.9439554531648318,1.319066018086404,0.5836521412269455,0.5739564607050216,0.5255187606427538,0.44866545523236034,0.6239403951519327,0.04997433443052744,0.2712728770761926,0.4211175107806417,-0.0646834446869823,0.37844534816357706,0.2792694448879309,0.22686047699685163,0.15992593705054683,0.41049757382227914,0.54284993345201,-0.027937046213623227,0.20454435293759884,0.34878523403188416,0.34096519806357395
1.0937882229934985,1.5722501330469076,1.3760760192214545,1.2567198457842101,1.4993276345091602,1.6914216421740875,1.2333914256539114,0.34577470460507975,-0.3370770213602971,-0.7331480292291305,-0.9547052627485295,-1.0212614868411716,-1.0716388555610974,-1.169482390812893,-1.2138045394016117,-1.2411930612298872,-1.331796187338142,-1.3721096024719126,-1.3382173182416046,-1.363492102210479,-1.377706328363488,-1.3409271689799829,-1.3853966871269783,-1.4026104768880474,-1.4083130555387398,-1.4998469420426856,-1.5108736229546358,-1.5616602286948509,-1.6072569329652813,-1.4722563650901703,-1.5243712068286859,-1.6544743002770044,-1.5154366509145891,-1.4076423531561875,-1.3939030068076113,-1.2305183181238897,-1.0410321283858457,-0.8935611102898925,-0.6743887002286701,-0.5029855997006397,-0.3064702841325518,-0.0426486866984106,0.011536599824702117,0.10202622925759779,0.25975448023690867,0.1380652737892535,0.10372621652701895,0.2607903092972046,0.290361217464654,0.37758402165933463,0.4594593515448045,0.247375165924343,0.16793424844868518,0.34286215538286197,0.26367682256062724,0.22163905291260183,0.3668780756127579,0.28986622262024075,0.2897924473686587,0.4048413282867788,0.3668780756127579,0.43335195972914875,0.4794577825977017,0.34186770238681347,0.4893050546812205,0.7447651074443703,0.6098066494655499,0.6487030650812665,0.8871927190618597,0.7094430570289545,0.5636406724744372,0.5409763602907948,0.4280915701732361,0.5995270095736385,0.7834544115314939,0.7366578918703334,0.6270353973373088,0.4932078951670771,0.44175599528594367,0.25622183288564243,0.19854098567643053,0.4028224859683143,0.25035137758943704,0.21072177329005998,0.3668780756127579,0.1305260241117124,0.24560469056879386,0.5883258374752925,0.5505185391892049,1.0990410530741161,2.1620858328308286,2.397585905329649,2.004338884213155,1.7695267038611875,1.2758804014836045,0.4011983849741612
-0.370012365012002,-0.6252486110898401,-0.6045743406652204,-0.6315874121200942,-0.6146531318125145,-0.394632731834524,-0.32443587594303835,-0.5821564752394167,-0.9011941605332727,-1.0000675242950678,-0.8152214737224218,-0.7463523612676315,-1.020398592528061,-1.0787686994887493,-0.8608764928731344,-1.0988334771603594,-1.5224512968021027,-1.4014910459736412,-1.197169987489513,-1.549178565805082,-1.8965640022112453,-1.7700038086485532,-1.9266398574317547,-2.087719108484922,-1.7446510171260545,-1.9285236947742694,-2.208974701581917,-1.767098838983452,-1.527014324798444,-1.5937746452039383,-1.4017778436224242,-1.008581785513655,-0.6943004175673778,-0.49144876226290535,-0.11801631916328954,0.25337338682394406,0.1541539860672642,0.14058596426135614,0.5533513628836464,0.5501912006103431,0.3207705327131539,0.5111784672784146,0.6277754633202886,0.6004796453716424,0.6180484792993338,0.482223535486677,0.4716763483896792,0.6425607918657474,0.4932423755413774,0.34066855961722053,0.5143713102091381,0.5860373581779088,0.5039970963733604,0.44786780086335154,0.49288449670876866,0.5736388435034211,0.5523260889336048,0.6259521017806156,0.7074782388410574,0.7111446044933344,0.8409729442179813,0.9818380978562848,1.0501916681653394,1.106293530419704,1.1933805964858475,1.2917513858189393,1.256978502859422,1.1720468925189031,1.0290077463563647,0.8151095161667328,0.6950874746393076,0.5724706733536793,0.592511495932508,0.7071766640263539,0.6856285102086738,0.601243453957336,0.23784211297431584,0.11458004211016012,0.39699729660468663,0.3503680701725558,0.39175436818859616,0.4589409846996615,0.15446284893998974,0.18212971448815324,0.3683874468209204,0.2999193484497352,0.5597875725790498,0.9740266466908704,1.3618649165891223,2.2016478380017777,2.478419431020165,1.6553059569653104,0.9267820870068184,0.27161429027869605,-0.49321571925973495,-0.45488869668898574
0.3832399170952451,0.6368558818101746,1.0075634653329646,1.529263466585903,1.8736784911800748,1.8021775152979314,1.3884054101767787,0.8613411067037438,0.2652485900387684,-0.15361068010059353,-0.1310482296831236,0.08450118568981176,0.034254973525684095,-0.18557735910857626,-0.2484841665090129,-0.19287454478623933,-0.10289829157795613,-0.10132084419657368,-0.38336711106907134,-0.6346777775882023,-0.6092514219463268,-0.6438396606579092,-0.707912406553064,-0.6358111862129466,-0.7477500977429472,-0.9739316407572189,-0.9516231565434008,-0.8463265710342118,-0.857100833901296,-0.9199187873089334,-1.0762521553160547,-1.309449806228528,-1.4016179051874542,-1.3386092760772015,-1.3713918657453885,-1.5528193745789052,-1.6858744842417261,-1.7260094678835887,-1.7611310718118176,-1.7622950500702426,-1.7522115945778796,-1.8308961830626045,-1.8420224842629647,-1.6095489144797281,-1.348456397440058,-1.2283843851095055,-1.130140056266264,-1.0379274247597534,-0.9405286714859538,-0.7005125145461295,-0.37604267308068545,-0.13356218749296592,0.013132174925427153,0.13834966779603855,0.30896556874796166,0.48249452156653444,0.5844591677919517,0.6827360868201297,0.7956723263661494,0.8201229467487129,0.7844795379717203,0.782518698528864,0.8167320395362433,0.8659369560869196,0.8568119154070315,0.7913645311931398,0.802113954348016,0.8323774393295291,0.8099299693362743,0.8109684422094634,0.7548588597069787,0.7130751665551046,0.8254007271545742,0.7737930132706223,0.6003400271477826,0.7637489233440249,0.9688980054989252,0.8799936899157293,0.8294274043381472,0.8713588490440616,0.8574358636454128,0.8687845360613754,0.9002571249460328,1.019091263136153,1.151385197967573,1.04650632373373,1.0595879355053504,1.3565670512522987,1.4439300581693642,1.3070677675253426,0.957970331523785,0.3558333408024447,-0.037991045951041184,-0.6125727055866583,-1.481808960394759,-1.075625985476541
0.41819950575494635,1.1198009655070922,2.1490307697005457,1.9900541992774043,0.6550367420148039,-0.44111959030780284,0.39855080086411254,0.9641256038877712,0.8754792555718129,1.2322521820622228,0.39564345881955765,-0.42846982364223607,-0.6722706736641755,-0.87972012789262,-0.9220805827951872,-0.9315732833654176,-1.0529128747214833,-1.093201259341169,-1.110245262565551,-1.4104945544949434,-1.4932819676441196,-1.6026826544331214,-1.869911112654712,-2.0574971809349,-2.1911090979721233,-2.3477108672618363,-2.6058987157165054,-2.5332026995103316,-2.5770641425234553,-2.450454993711634,-2.1945184012416896,-1.7310648620999807,-1.18886551493818,-0.8564009961534785,-0.30037403162849946,0.19973391562707737,0.35034230769803354,0.5867789520802789,0.736641429006879,0.7711930765743183,0.7914701729045855,0.6969091181862869,0.7151757861256053,0.5888964696875941,0.5543303967915633,0.6235491850276186,0.5495847853647418,0.5945756059504123,0.7361162063112332,0.6390579814525756,0.6155008368179203,0.7427370199825132,0.6540121717425329,0.6125744754551109,0.6647993721483377,0.6584555750484847,0.6006714381858973,0.5134937391079666,0.5487678895617203,0.47054494190123336,0.39615359272202166,0.523369158221847,0.3868337648875328,0.38527868430788137,0.4318119494885066,0.382673128179457,0.3561542575088319,0.259907701156424,0.435591285054557,0.2681308521806717,0.27794707215861086,0.42707854178914867,0.26785103096347684,0.22549667792464131,0.3334842052413478,0.3719094807666068,0.5648422091299354,0.8331331254728993,0.7893498405990085,0.5043173302024085,0.35240765286256825,0.3616929704858691,0.23606964963524427,0.11870337681793386,0.18240479352127237,0.11045711511045828,0.0557687723830462,0.20135721242960147,0.15295724941426578,0.15048520045589325,0.18661934175355485,0.21575937002296955,0.14990006489724697,0.15838947632456407,0.3535521594382719,0.12020064550578731
1.4044432575409098,2.30059674205473,2.446819010009045,2.3669272176531253,2.33475521650359,1.9938416770258505,1.3171519250255852,0.6514810432090605,-0.017313220808304417,-0.5134942400438671,-0.362299174300322,-0.09479186478141154,-0.42511308651847374,-0.6026834130207039,-0.15735013705604586,-0.014756653496483491,-0.3148901659921816,-0.43924281148528393,-0.6566786041625999,-0.9664033165941762,-0.8032718191905356,-0.6401345918654304,-0.9585500973371955,-1.1083074453653279,-1.009236399568211,-1.1801594542318783,-1.2435264546587688,-0.9537693524419657,-0.9331059588689982,-1.2319872975535506,-1.3675133100075676,-1.3850572237577872,-1.4390696750315335,-1.4914303005244736,-1.6107929082014822,-1.670700845512651,-1.5349287480104714,-1.554853997016382,-1.8232233129046753,-1.8535007205481946,-1.620922303576538,-1.55014892729446,-1.555628340613604,-1.3262387757243919,-0.9919156913902711,-0.7784232809273466,-0.6465941936972879,-0.5225545929135337,-0.4140824750219777,-0.273694604100279,-0.05635193169400687,0.13869064835115819,0.2322183972310478,0.3179246324193941,0.4127799538401575,0.43591373771136815,0.4951803962857129,0.6031414654975913,0.5563613914638917,0.5215189252320619,0.6894879942783697,0.6776216083950553,0.45115297652359665,0.5127041246283872,0.6605009247386981,0.4573948413398,0.3187794160719836,0.47197578254320505,0.4580387337250116,0.3136357560456763,0.39762281374477326,0.5098906628218229,0.46211629662661213,0.47161240499741286,0.5540514389666569,0.5158434078639162,0.42045528416689754,0.4192224463275715,0.4695630432968907,0.5589394841806813,0.7927573434800889,1.021005658800964,0.9279652347153897,0.6961238565364724,0.7253309047979147,0.8319796410495164,0.732391092871704,0.6361963872298549,0.6770329745682485,0.7605244141656472,0.8578229841514003,0.7638486532345565,0.4958153520039385,0.584752850746061,0.8410602094842096,0.42972908163736634
1.1750099689892455,2.086797998535312,1.7693801521302672,1.6148787504781759,1.9592768871439141,1.3096812181842552,0.46174274911416147,0.5191229668779237,0.8566529482441683,0.9944200036456672,0.8255645656494079,0.5794736362502514,0.7469902026997393,0.8574477687729588,0.30907231873876523,-0.13107511787882903,-0.06252647795191796,-0.1012557118413162,-0.23404033915384875,-0.2356955626811054,-0.21588306240317023,-0.23162209113575116,-0.22874599223417122,-0.23221499727369235,-0.46591170441865487,-0.7280162966815287,-0.7920207861922407,-0.991866062186352,-1.231100768596178,-1.2949037458157933,-1.3713090319116572,-1.4357185766083138,-1.5096502455501246,-1.6567351183123993,-1.714790783240851,-1.6956451050879087,-1.7146732695881064,-1.7870150361074968,-1.8791259364464867,-1.868131423431657,-1.746838636160664,-1.7382255589315663,-1.7371768827763634,-1.554153037786799,-1.4667618838207894,-1.4181573725311294,-1.1695345717762387,-0.9121821250739246,-0.7199702806287634,-0.5848172656674757,-0.4448490357994077,-0.20813303197841299,-0.02660156815823165,0.11765064051775648,0.22179482832036787,0.2657026536578679,0.4071812707222477,0.46741517032637336,0.43644172794594005,0.48936263934658536,0.44169424643883654,0.3715511010525852,0.41531743753958217,0.399983403677983,0.3204370248909754,0.2651017155773653,0.2903794350649141,0.3601245921683755,0.3284523104701359,0.2304186315603705,0.20549082933016888,0.24566875725606208,0.2640106480557273,0.24516499663330818,0.22869652879173574,0.24707517150880348,0.2341820540388639,0.165474877237182,0.17243813918069772,0.16756539385179103,0.09966182747949509,0.14770795892648475,0.1341147857869867,0.1259521507534267,0.20377755265110722,0.18738766515371832,0.42120597731640974,0.7276875146458371,1.3308968053394779,2.1477028417868964,1.7557650545017498,1.4779382513284542,1.9034520716437855,1.263547509350379,0.8046082222572849,0.7353799442810113
1.2637370922896594,2.795568059253405,3.3043902104752796,2.7145271665870405,0.8740759355534388,0.7581987992587546,1.529252504351588,1.0259700813941741,1.0384255232697588,0.924812087941209,0.0040520379264200376,-0.43509726042961705,-0.4375215700886477,-0.6480622962913916,-0.811470246811681,-0.7915793371873049,-0.9040702004845333,-0.9982463248649015,-1.1156960230218398,-1.1564747681823344,-1.278953950125168,-1.3923801577573298,-1.4814429404488079,-1.5296325850633306,-1.6275868990156017,-1.8505450787199893,-1.7761697936198555,-2.00605987145033,-2.1515460953500276,-1.9279925064398913,-1.997768976692044,-1.827386947781826,-1.7807277953431477,-1.4282802266434034,-0.9999982634259125,-0.7413187984370762,-0.3651625237156155,0.011195383925799784,0.37839918916925885,0.46044146100210426,0.6876148322873822,0.7855086603846648,0.8084196306586083,0.7822170718259891,0.8700074500665665,0.7345678191188352,0.5884815317087757,0.6593034914700534,0.6048106920045201,0.6088581979369031,0.5394332533392469,0.5353741769865396,0.639320611580214,0.533783520635507,0.5624334495478557,0.5522990480628456,0.5032255881964335,0.49475357765796846,0.42668093473166363,0.4647970055009529,0.3379745531541585,0.3579009782390091,0.43761321269935954,0.34223005523504973,0.28707654556426493,0.23439616046223755,0.31509970149031546,0.30159365338627886,0.178708581902663,0.1624151481697623,0.2283297217344238,0.15187862682913236,0.1296444909604406,0.32274409021704165,0.5619731760158008,0.6128182471735235,0.5442436430235169,0.39782338161307607,0.21374930330667283,0.07800925760374786,0.0627578704008575,0.04383551251932061,-0.12080442439018538,-0.13822854251687647,-0.138955951018264,-0.09833611266347103,-0.3595071214053918,-0.23692213696567285,-0.12395427278676314,-0.22535323456778836,-0.22765239067943474,-0.20817221589783577,-0.10170388203565206,-0.31556626380592506,-0.16892435496044195,0.1575003532852406
0.7850780499209394,1.3478422855172898,1.9735848920131323,3.108745361169866,3.740431504612424,3.042339290941679,1.9909117723900227,1.0140334471770087,-0.08942604254905195,-0.24252056491024168,0.3882650359296362,0.5954462994035927,0.6593667397575649,0.8091522646470982,0.5601321300185196,0.30422428801754536,0.43895589184601885,0.3681564294742761,-0.05318974383615824,-0.27633644025506604,-0.38388444224419127,-0.5422834162706078,-0.5222329835967457,-0.5466050838710517,-0.7481893701213169,-0.8067831749667911,-0.7172790072633541,-0.7308853491152792,-0.8957119781363047,-0.8851438316366275,-0.7567252341112154,-0.999884483396928,-1.143043937169647,-1.0203433991554918,-1.3762927545186416,-1.492570553207646,-1.0275365616038499,-1.2540147228180094,-1.7204831047591027,-1.5343198666951932,-1.4866004776773547,-1.6972120842858702,-1.594316667939893,-1.370721059316804,-1.3975618208558265,-1.5935897721147478,-1.5234852889004027,-1.1632524654131682,-1.0316623061005448,-1.110020791431725,-0.8270251277521269,-0.3685281220652775,-0.3141649594890801,-0.21373511829222921,0.20487395397011854,0.2909958495642466,0.2133822439695818,0.39494222397731593,0.5100778583231731,0.5953350182974614,0.7657226165094623,0.7480556200580598,0.6584681372861841,0.7171664679619704,0.8066788485528246,0.7481201671206135,0.5671259414627502,0.514875702501425,0.5550312031528369,0.5021169266099654,0.5008160836525198,0.4833591642161068,0.3272816326830159,0.3270905548812685,0.4463377597075925,0.4316764086335823,0.3766943743303869,0.2879886862602938,0.21196438998455097,0.3022791807338165,0.3717629827722837,0.2815520644412345,0.19399302412651404,0.20905373062087462,0.24828382885249162,0.20181352250163181,0.14539776132572882,0.18887632489809247,0.15272020889657598,-0.07719201185909276,-0.09663328753594468,0.20290466038635788,0.21840894322120175,-0.1772417813344091,-0.2364983772522009,0.015237816544486634
0.19871460044679398,0.4578072346389042,0.9782180547896511,1.9461189752150836,2.271323785264625,1.7504816628660975,1.1643764384490047,0.42043662641080526,-0.07198097697704549,-0.24251594260231046,-0.2447558292250387,-0.2652872235685162,-0.6249189399204078,-0.42091414280962003,-0.18949158092949184,-0.6264135145455848,-0.940701828972827,-1.123691083532292,-1.2515702648940825,-1.3347380647233091,-1.3614299489656723,-1.2684838873380342,-1.2876055400517668,-1.3750564059271826,-1.517315478663049,-1.758175945005489,-1.7000144272531947,-1.5837071741639197,-1.8441313013738014,-1.8576688942898536,-1.784002410054019,-2.0703839863070366,-2.191280805979381,-2.0319487787723554,-1.809172849355197,-1.597813235606064,-1.4582856264937112,-1.2996942670320872,-1.0416083498870858,-0.7328910772780141,-0.4174996423878327,-0.2039073094440722,0.00030671671471230996,0.21624099275714698,0.29711482354683955,0.40716440927937364,0.45779246752546776,0.5449254936509635,0.7406321682073773,0.6750235016609083,0.6405279770356735,0.7834371948100016,0.6816889986923363,0.5602928113364886,0.6379539555705268,0.5734343963105979,0.4686332075542633,0.4866404910644605,0.47056903639611264,0.4364274600786357,0.4367207616911164,0.4713061556111921,0.4401740245291126,0.46718355752401286,0.5322023336800381,0.5076724191807263,0.5989325670156249,0.6098384371519455,0.5813682164885693,0.660907910454613,0.6641318960133324,0.8084276140516702,0.9551616750459301,0.8708687096347943,1.0067545414923553,1.2734258915178884,1.2678898826407163,1.2688114952750593,1.2059307337692882,0.948009235213372,0.8378994149378081,0.6952038327623572,0.4205042796942818,0.4282533450881498,0.5810921750079949,0.5832754761429535,0.4849848855406189,0.3272784571633523,0.24929315016077488,0.18509394377422358,0.05062225352295724,0.24325871853451875,0.33319047957223935,-0.12063605940083998,0.0426453262409437,0.3450955173328025
-0.710012196774439,-0.22736858588082576,0.21733443033123867,-0.3193944422251717,-0.6523786259444083,-1.2257499342341094,-1.5322966120668031,-1.5159764888582408,-1.5590401661280096,-1.6088550982542116,-1.6980338872959384,-1.40271855924503,-1.4785522606272732,-1.5900729182567306,-1.3149327442733685,-1.3289775860283797,-1.3270841988154416,-1.4019012914966262,-1.244941954405052,-1.3249021039796973,-1.4358421295655162,-1.3373021566941938,-1.3666373441897912,-1.3576304102427759,-1.4568501327469034,-1.4323739186691224,-1.3059090226616565,-1.1124156056677885,-0.975804204907716,-0.791603443893002,-0.40686982613485956,-0.23284498346969953,-0.06811432677325462,0.1456828981146989,0.42477270697648184,0.5368297254667489,0.35942988868048364,0.5309876282048225,0.46418073454989717,0.36542037080383927,0.31521202427909445,-0.023274972972303087,0.24359051886162578,-0.0024092491696922403,0.008003913965228255,0.025313006040438495,-0.04628276499282457,0.3168462883585687,0.2201103259775392,0.3092789519480037,0.5341754147333259,0.41979848171690093,0.48736566558519995,0.5720390274171222,0.7084068059892172,0.6802205682759547,0.635186180010705,0.810888793948637,0.6834188093980417,0.5768065432460705,0.6953265613321868,0.7132397434480132,0.6861900205822172,0.6097224793064918,0.6272117176000128,0.5398084100710883,0.7976931868724099,1.1139059808825476,1.020807221871693,1.1799005023535645,0.6828224653065466,0.5735926906010651,0.4849607773286945,0.33708408956766556,0.4176780991407808,0.26491387882696354,0.26631651334359985,0.20069679910504593,0.23088312120076135,0.32811445037276066,0.20384665757432766,0.18248483676759517,0.23314379638077729,0.38812481273904115,0.26665870023358346,0.24819571707269616,0.3399423050859425,0.12152189003346107,0.3337125635569318,0.6449579378458117,1.5394333725411067,3.1412434783089025,3.349543816615057,2.6676711976377816,1.1614496525527305,-0.3687449993988828
1.227924285161617,3.540063006938646,3.646656032647243,3.093145516683197,2.0463828522135286,-0.13664188003079297,1.2328717205265243,0.7479515614294936,0.21047770845746927,0.6586494282634889,-0.21147168913760436,-0.8317784431317998,-1.0305254744018686,-1.1071074834462615,-1.0283520247102105,-1.4704027006012943,-1.4442860200480405,-1.4188273757411025,-1.6818679661241343,-1.879685061294689,-2.006924904087125,-2.1261927171701456,-2.209549906008183,-2.0637984963469997,-2.0766489007886886,-1.7664042119638579,-1.6643276712095427,-0.8831543265143427,-0.75969606100953,-0.5193655620695854,0.10038240093416041,0.07812812373994593,0.41810975703186476,0.42642182239767923,0.6968583642260319,0.6817020483814457,0.48132525654868275,0.624921341164589,0.5842652562607935,0.2511937564869793,0.41591414159130446,0.35107725523915534,0.3466715286619274,0.29371510172649734,0.41585988828208714,0.0917746877037165,0.4838230901638419,0.19284600621645326,0.32647006721237626,-0.05433989141792412,0.2641266617455566,0.12417120840123977,0.029470008464139514,0.04023371322020177,0.15490109900443721,0.1415961710540839,-0.12691554941258495,0.006296190655333714,0.11023263155460976,0.03158824483341942,-0.033017381887600054,-0.005636523333253856,-0.04520913587559988,0.03395082515980215,-0.03078274166073018,-0.006018323382106768,-0.03611146409572982,0.023648201154131635,0.010058312145342805,0.010920799026984758,0.05059328862443442,0.046372931038738484,0.06782411148487706,0.007847909184779149,0.10994771372189771,0.05332346452430905,-0.01491916451802612,0.28922615055282497,0.668167159582166,0.7191522020044772,0.6687642174008901,0.7996616299170246,0.358763261341537,0.15691741816499005,-0.014528956864906004,-0.05910197890153614,-0.1477652961894338,0.09276268801285997,0.0028859516857059784,-0.21114844114590664,-0.0059458654086574116,-0.10054766709093532,-0.04093447974446436,0.08971743679877396,0.10035412527950663,0.32087400473538114
0.31830835789642403,0.2444757262095589,0.37241618728436415,1.0693220679342574,1.6869965446780928,1.768794088888331,1.7066291656088044,1.6206218380419202,1.1743199636523773,0.5025815064985896,-0.02247992080593609,-0.23655343297192602,-0.11889336579158709,-0.07140020399031162,-0.32468191715211353,-0.435838010786597,-0.3203324744990018,-0.297206863282578,-0.4199256770790759,-0.6860622840933742,-0.8864688810568475,-0.8477473886379583,-0.888290392934741,-1.0354254576275896,-1.0608049887430306,-1.1747714178612625,-1.3711506038107428,-1.3446327282965562,-1.2679146086822388,-1.41718268187859,-1.6430842326914004,-1.712178641527154,-1.6858282405597982,-1.7919854903887207,-2.007353937665241,-2.0671662758190315,-1.94805357302106,-1.8892773454039946,-1.9254814018512003,-1.8551946667249557,-1.6668391802826337,-1.517407050387347,-1.4007407224823343,-1.239340093460005,-1.0297254925889407,-0.7726748924173872,-0.5139777038126819,-0.3111890076016541,-0.13265434519440744,0.03523809586676945,0.14290505736266382,0.2269919967225652,0.3454945231989237,0.43083889885170634,0.4720326412826147,0.5727729238785529,0.6792131514081525,0.7035593163176783,0.7364062419329784,0.7757159660794991,0.7420041540544952,0.7274984758579318,0.8111115306072605,0.8835986158930229,0.8602836458507498,0.8106173500116907,0.7966610808116747,0.8080336580533231,0.786043083965182,0.7041159530572733,0.7398232755754823,0.8686979752147684,0.7113846700695237,0.4611643272878249,0.6032959541854427,0.829467917081671,0.8042339360240668,0.7668254601363197,0.7594084386829293,0.6571977476603073,0.5292044104680752,0.4798448262675724,0.5779640718906486,0.702090858074793,0.7262065394063038,0.7756483429536569,0.7682407708444455,0.6138268461730947,0.5558027260377082,0.5697613575737688,0.6071729999970652,0.781146936436357,0.816609732042702,0.7527791306442836,0.8223362557699901,0.5421782796057794
1.3153244814828864,2.5459704748810665,2.5807235543329594,1.1376674623001637,-0.04239047390679102,0.5597156869046621,1.1401270059572393,0.9113085735366423,1.0696581197226074,0.4861207565692903,-0.33485061928495785,-0.3081008126637888,-0.6520344328552391,-0.8040089287356114,-0.818907317638466,-0.8866352104947212,-1.0081284140568372,-1.2521967308783608,-1.2229281915166457,-1.2674519933634685,-1.7013279796688556,-1.6806761364142857,-1.9079910676002791,-2.1812500169565987,-2.1967022077951706,-2.4959740958724224,-2.4425315204798834,-2.488522383271299,-2.2681155258219396,-1.935114304260983,-1.591177276274136,-1.1181378799137223,-0.631984221301868,-0.19862425966051261,0.07459207918510455,0.24582234607614248,0.5156687150485602,0.7088562842589948,0.5567906926798428,0.5696086777816333,0.773966065421036,0.504470960739333,0.42786025210767004,0.6908036339053147,0.5059587901361086,0.5670303438053702,0.6089158183929553,0.5761589531065848,0.6207514335910223,0.5888271359458268,0.5332532408711466,0.5567903710000414,0.703402163015044,0.5120931435302493,0.437025412276327,0.5111740339699842,0.45411791879006647,0.41354391264809937,0.32774028891240853,0.44107384305030956,0.34629864001899185,0.22218267045803433,0.18331696500677747,0.29795945436185983,0.19677216763780467,0.0826615366297322,0.2529371191902103,0.062056442497560795,0.11669848547084012,0.045165295476550835,0.22322464159747452,0.4819025693325742,0.48868402185735316,0.5388146523813824,0.3526846475428224,0.26475272992562304,0.050500933002374654,-0.024718021936718904,-0.04045098495851025,-0.08215077993318885,0.017415604491717564,-0.18593588136123443,0.020634607018337543,-0.04154012641983895,0.05058252607876891,0.045118595611371985,-0.1321866244879659,-0.033542944395106015,0.09766435083814001,0.0810318192987737,0.42036402706401793,1.4834270074122318,2.1869622455705175,0.8294896075542919,-0.5438159494505365,-0.09211267562888494
0.18044254407916913,1.0438602047629697,1.9566387062516013,2.719341215487056,1.679476574052646,-0.10169760316247477,-1.5871638224424234,-0.7548475422185748,0.17623033806787997,0.06524159121776334,0.4454578056904804,0.0348207967571374,0.009592655774561512,-0.5423558169115081,-0.7744174858672879,-0.8691362543869109,-1.2232916932846116,-1.1279606776291227,-1.3038595159969322,-1.0617898355102524,-1.2751043574361616,-1.500566614464183,-1.507730222607366,-1.6515984983543261,-1.5190555631903886,-1.8505960575375606,-1.6010019849046402,-1.7745946806661126,-2.0891401273930805,-1.8114203833621494,-2.0406179460423335,-2.030411448021036,-1.9960087984344161,-1.733513154188119,-1.6651019127724689,-1.5503456591167488,-1.115856972449925,-0.7220086485174839,-0.3025123114428588,-0.2341656774049643,0.3051863323358858,0.466418682751037,0.499673397858828,0.8742549613560473,0.93637176340133,0.780683122065871,0.9622522103055287,0.8471302067148059,0.6031286078090792,0.8359448973706409,0.4920837549752271,0.37646347942352487,0.7296157598583357,0.5672360982189727,0.6644279410572418,0.5268014999805102,0.4691687434842899,0.6203011824700749,0.6884966370534701,0.46385579945263866,0.5096719298880592,0.5456512025522919,0.5339689180188498,0.7339605582630583,0.77813809199649,0.5540456179333232,0.41951766707800214,0.584327448729935,0.4971426423306657,0.49502716537453767,0.48991057670459504,0.4636761915456275,0.6518637009788498,1.0040348680697093,0.9677511757352456,1.0476636663232048,0.7627681807890547,0.6169948870964994,0.7435786838213033,0.4218499562207544,0.5895739055674869,0.34646839601301554,0.20859182878515328,0.5297465087263374,0.27401462462919707,0.3502386139762012,0.32602587579608283,0.33222348954601433,0.11254061226270838,0.45130476835112093,0.5701087993767813,0.13747526023373152,0.447102715358586,0.15184288754523892,0.19439262095503979,0.45407971905906236
0.9238198639637878,1.074435865542336,0.9878803656999582,1.5281329561407413,2.3224823211967847,2.3200657016928754,1.763652631784286,1.5215109763903027,1.3250242293570977,0.6751371011317991,0.06252861167564319,-0.05628500192700354,0.05905599177398649,0.03035743489730293,-0.2082240504109746,-0.31963883458086806,-0.18776539602159956,-0.22186475168373515,-0.30750081023532433,-0.11363413512757466,-0.21951851974124972,-0.7451523615797656,-0.8149832460560846,-0.571687674953972,-0.7661413955932912,-1.0402005932951357,-1.0047535299498445,-0.9918795424299237,-1.072672661317199,-1.1406211861763567,-1.2307733577145927,-1.274944719043811,-1.3429367712010216,-1.4792553219833924,-1.5026992453446353,-1.5796396253620797,-1.8724382094951706,-1.9606839255886626,-1.7577796665284362,-1.714363247481845,-1.812816768380849,-1.7816610744188395,-1.6989554886955416,-1.6380998023953213,-1.5834272039672503,-1.5424571598061478,-1.3932561371991088,-1.1481884019166146,-0.9442102751562028,-0.6757792174075669,-0.36705025538921754,-0.26569528321145586,-0.24199427737436854,-0.051187564282995465,0.17193424311912084,0.32847282219359625,0.5062614683874957,0.6201232104875168,0.5891596498390608,0.5869818072198282,0.6691126315589517,0.644863915598443,0.5767733791597024,0.689175861053128,0.7864406745630413,0.6647568457955488,0.6097471369886776,0.7134680037867519,0.7438122302936278,0.7635758452107906,0.814959157097706,0.7238413530597777,0.601520135871882,0.6134290136217868,0.6634177732045471,0.6692743158688554,0.5416976348295334,0.31076672154515933,0.34693326197503394,0.7151773599860168,0.9457157133359184,0.8830494120666208,0.8146469567984842,0.8163088953846046,0.7519670344001192,0.6108376817760387,0.5119165188665448,0.5329429582094133,0.557114883169962,0.4978087686804267,0.5205112301531968,0.63107577439946,0.6373875945069134,0.6374599624096117,0.6512504458396444,0.38306235686559054
2.0501384638473024,1.8931205208198911,1.9193506940039449,2.4845079282685885,1.1240082393662212,0.04467181064427751,0.02390706375373909,-0.18643646389017351,-0.8456451721541338,-1.2172001813589273,-1.171078133396538,-1.3375521557890881,-1.458156045714471,-1.6299538688360522,-1.5365762537077137,-1.6651719767478752,-1.8596393797411561,-1.452027040230162,-1.8276909459704296,-1.7667348349721608,-1.5581577516479361,-2.059373786873364,-2.078274787335497,-1.7606297544231522,-1.8998275411243541,-1.9503512745573264,-1.3997044130274388,-1.2832241565934754,-0.9746692822185925,-0.8178073237378434,-0.5368922636509239,0.1874765487383512,0.18990679943519334,0.5306300561456656,1.0218865630102762,0.9921401079066431,1.0435842677791007,0.9098163456692633,0.7772092754936929,1.176653652145623,0.5318865173486897,0.6605170220174814,0.6816891723567092,0.5206289104604183,0.5444984163098776,0.47337999804538006,0.4703948496894697,0.6022778588399069,0.47636608128321595,0.5055455254727234,0.6632794171627524,0.38614964373013444,0.6857663934841447,0.7600132584040094,0.6175826198465872,0.9904650206508248,1.0636737745860099,0.856044651481854,0.5415694814994295,0.907232553181758,0.9932773364804243,0.6581239957052685,0.5869060275944349,0.22140673114148193,0.16860968654524316,-0.007888842120851546,0.04762282977840699,-0.13245787932737862,-0.061107028305938865,0.07756523010215047,-0.29218229547691976,-0.09698260349231082,-0.1765163513576389,-0.1777666302769615,-0.26285739170178335,-0.3032861695771455,-0.15852182447356386,-0.16190030680780784,-0.2766244629382278,-0.37816207935052193,-0.10788844849045655,-0.06501910706483863,-0.20631366202752618,-0.08813752374902087,-0.08683305786699107,-0.08927184112059076,0.09097168521190917,0.05845061113051542,0.00035296586526900397,0.26981966202634156,0.5628981089575169,0.5302228698308429,0.5126793380296742,0.6806007385879482,1.2552023310099325,1.3798126423487507
0.32098528301729035,2.102675501777827,3.461853987920904,2.2447385504281874,2.314500143211886,0.6248707430719377,-0.8913189203663469,0.249383309826564,0.5014202485780587,-0.09851969241127034,-0.030927280017487083,0.3465297855844186,-0.39191832660004855,-0.6233789464791596,-1.0507919031301773,-1.0465086360478548,-0.6219446064016145,-1.1845916008288355,-1.203806842198473,-1.0937735519114868,-1.3889059236215888,-1.3039939158603482,-1.331885364101965,-1.5091788851409327,-1.670369416890075,-1.843012553773223,-1.8236938722424059,-1.6829049771809221,-1.8685622735846323,-2.0091256912102304,-2.056307875049906,-1.9067273704876435,-1.6429750644667613,-1.350039162651488,-1.17178844315309,-0.911984766748494,-0.5046678610261742,-0.14466654578872118,0.2041268621187533,0.677401768389001,0.7083356340360161,0.6402116327019609,1.1225182522873487,0.6730893892846399,1.1451791869560723,1.2498177059215083,0.7820644937595022,0.9415735348185856,0.7108461438370891,0.8933545267161067,0.9249250268478328,0.7497247667498712,0.6615107359309031,0.4075212610990784,0.8340179228879291,0.7523340724599896,0.5840028422139942,0.6303756093055616,0.4830805392082384,0.5685609350737965,0.6713843456016126,0.5718416568971664,0.45330501236905496,0.46098675618709534,0.38292600546878647,0.3513436333418851,0.4008846650087058,0.22920632627029966,0.1436031693504823,0.11041430818974773,0.20529649992961363,0.10239425774543476,0.2715869967623989,0.456975278379585,0.6932086313165294,0.9344134149037152,0.5083645917135584,0.3656727997861184,0.44933974587553327,0.29169831742917574,0.040509945868134514,-0.203599763145779,-0.0838843079062166,-0.1594673551369616,-0.042766219577383156,-0.19444292644033703,-0.1614853329519156,-0.20900647682996076,-0.166647067362244,-0.18699831089849392,-0.18496909439547393,-0.02618981412364478,-0.27897167282304103,-0.12913012510183608,-0.042956154410947724,-0.17810186393989746
0.4698325097180338,0.3418893042966492,0.35323449854656475,0.8141401735815345,1.300217996787802,1.7426344818503932,2.1742461444677503,2.1527282788457542,1.6702330035929702,1.1265244746418577,0.4602418576324835,-0.17895863738195897,-0.22642928763445333,0.0326792389962921,-0.11747917354259092,-0.41709295736086505,-0.3582598627790797,-0.2523046278526503,-0.3690839357499574,-0.3405536213394777,-0.08228587624363899,-0.1216632426205935,-0.5901368270419348,-0.8915768574629108,-0.7772563694461992,-0.7068569056457217,-0.8747487717249466,-0.9944087825630087,-1.037033356757735,-1.1969588828584845,-1.3575604391678622,-1.3222256218558235,-1.2137277493554224,-1.2055172745123113,-1.2584742139957616,-1.3878767499958344,-1.6858128630698976,-1.9232026048848945,-1.8135464840478666,-1.647175600491858,-1.812094702892029,-2.0072334111297327,-1.8263813070928092,-1.5207337249682937,-1.4715444601643062,-1.567545776036424,-1.5319153148814744,-1.3440168147844753,-1.1159712680643232,-0.9039599113836013,-0.7391587649457805,-0.6244157907192812,-0.4614292601488259,-0.19346766306074853,0.055105371559880136,0.2053566450155695,0.325692042702656,0.41278588402094973,0.4541176974593966,0.5570127120106372,0.7155234802902459,0.7832171846997198,0.7678730078878055,0.7818144697661618,0.8220732297530097,0.8572871557745062,0.8733420338461945,0.8255338208516074,0.7785490679398456,0.8226257047602364,0.8440510673342058,0.7922382423810871,0.8336117133538768,0.9108620522098526,0.7940032793489886,0.595300177961619,0.513049376847963,0.4906160708247931,0.5581143547546278,0.7669491736543016,0.9141193115161839,0.9669292131726959,1.038451962736334,0.8999400578967854,0.5458876372176487,0.48658272883895665,0.6801848631355475,0.5980393417895489,0.456395180404179,0.7255413633626616,0.9886230376463175,0.7554519957504938,0.5002970847771888,0.7236576466528559,0.9162038468948039,0.49646349589582306
2.26059495085004,3.5535951554638254,2.9034353422668286,2.735202837651517,0.8666457639654203,0.3775486448686397,1.6478086006496808,1.2898597032605021,1.1631450032576711,1.1912929911261014,0.5985022975882917,-0.05177910052112613,-0.436086109101496,-0.3811563979534574,-0.5259295485925755,-0.7220746619341653,-0.7173119009527018,-0.8247129356293496,-0.8642076054986286,-1.0130006579329303,-1.1405109122945016,-1.0770801790884006,-1.1336823537861818,-1.3228694827618732,-1.5092505586203209,-1.5130964416954624,-1.6625403327878672,-1.8907760723257823,-1.819600998426863,-1.891301717226193,-1.9968386275064502,-1.9906939401508355,-1.777004661755384,-1.4391712065447864,-1.2555029971861253,-0.9293671967446483,-0.5002460602598,-0.1520681667319617,0.1974692863713396,0.3633543326362218,0.5275711373987542,0.7859563464766716,0.8602420640547476,0.8725610534126897,0.8305823520123167,0.7848787593520887,0.7289944131310436,0.6550150855112699,0.6589416398490965,0.527709419503364,0.5717368593486276,0.7238357648390432,0.5759679841433799,0.5034705147385488,0.497956601263427,0.5176020893572075,0.519091376365063,0.40811321203481654,0.42435925835527505,0.4129481700266978,0.3211486258210261,0.3181402562137142,0.30902223219165464,0.2536266181138142,0.09933593523383567,0.059275506992916165,0.14186830989781182,0.07482943610001165,0.010626796021568288,0.018103076914915184,0.06064490393880446,-0.00531127526336684,-0.04020270094262975,0.08549851065703724,0.23336389684867923,0.3868689853807676,0.4050140885135459,0.3956220837731712,0.24158785207283226,0.05338259741257697,-0.015540506774448445,-0.19612669894052542,-0.1935033096879857,-0.3513704869039553,-0.4367245932447278,-0.23174037237384557,-0.281060932720572,-0.4012248346710645,-0.3582629591678079,-0.25317641066194957,-0.3188359224767649,-0.3535367188962927,-0.25354846350970445,-0.2768842823896813,-0.2928760106696829,-0.2061614199240186
1.211331731547995,2.042521374562584,2.4601404667399573,2.753828294221937,2.7603041107073367,2.288304746667319,1.533373120327546,0.7645892078378216,0.18943690277615297,-0.029203964123231924,-0.049783646499120475,-0.2110663611494598,-0.3761143961700369,-0.2499427723985248,-0.09551546041926606,-0.10000136565828635,-0.12205320759952837,-0.3604307366529214,-0.7430147569198405,-0.7917863303570261,-0.7126625889687798,-0.7637441953163897,-0.7449477811039869,-0.8863352615426229,-1.0242546215787758,-0.5844345667571057,-0.36087777105078817,-0.9290697093224473,-1.1005555624019814,-0.6648362012581385,-0.7892454519797112,-1.2949186194340845,-1.3415087112511517,-1.2744461127257536,-1.5100278120548858,-1.6485804289359591,-1.5420148472249315,-1.575082022850358,-1.7400811424362597,-1.7286935769708354,-1.6772530563857297,-1.7446174307740454,-1.6559341297021264,-1.3948426190374763,-1.3164801127923118,-1.3265809590554212,-1.1061682717724537,-0.9051851550218719,-0.939246954538194,-0.7692094748132595,-0.31917054739914913,-0.1277873410422255,-0.12458974329953544,0.09491354412945283,0.2899401170179679,0.2627189791958649,0.29125325417390524,0.4094157344805836,0.4389294842414111,0.451666707572632,0.5738634144683431,0.7149112311950492,0.6762392072492768,0.5036523045273247,0.5073923448862343,0.6474763988779129,0.5723307911634733,0.40851115077636874,0.4525892450307167,0.5202404271187296,0.5054042129312514,0.5749356737686097,0.6380245516649649,0.6527175680787168,0.7067719079359187,0.5907779113749166,0.35706357334063776,0.3930156739425918,0.5617599003442622,0.6142156122225131,0.6962107378781813,0.798616577562988,0.9015946655080366,1.0570018262228504,0.9440453715987631,0.558658796489252,0.4496594758794897,0.5676055159428475,0.490159857444295,0.4232133149594497,0.5526519690481079,0.5081165667472622,0.28332384708964004,0.348652098917724,0.5291383115575998,0.22908596880122048
0.6461296499200596,1.9755381004546613,2.920009903512443,2.3516224012460687,0.7957164677375052,0.1600106110699163,0.9301350776340742,1.237945313332072,1.1875337657624185,1.3770813776321964,0.8750935424095695,-0.17336221168095198,-0.7174938807232443,-0.6713848608223447,-0.8861693991552889,-0.8851837923464809,-0.9416851406706358,-1.0470251329093494,-1.1773271661677964,-1.0916126676610298,-1.130787939741493,-1.3255284688673956,-1.4577318308064406,-1.4650118468289066,-1.4863432387091506,-1.6841819464295353,-1.738087137700442,-2.0125227320353307,-2.0671597448561343,-2.110943783777001,-2.1581626593102894,-2.03345222521276,-2.0176890101828393,-2.017918106516935,-1.6080658705943114,-1.2542624197241892,-1.039682690900278,-0.5880801863434294,-0.23925293101522532,0.04904132181322087,0.2750143571374911,0.4210251008043816,0.6461229348541896,0.6875889893307197,0.7068893552551351,0.7868382258280193,0.7557060344707034,0.6421553261219458,0.5873913301992418,0.672694963178709,0.6387427055208593,0.5957825589407626,0.6328201481059957,0.6392238279274476,0.6030608660392797,0.5197517182006154,0.6236442418020869,0.5510439251545147,0.5940010258289847,0.4896558886933908,0.5145152133312991,0.5155003979353667,0.41741812528783223,0.3897163072356839,0.32224401899664584,0.4470628089250316,0.3513988044001545,0.3556797594171765,0.4711376570504279,0.33193281358760574,0.4076213267032996,0.4301685576582485,0.4129569692666418,0.592520625221997,0.7718759030330141,0.8681503754024263,0.6239863281666885,0.5288656106701657,0.44207490222781637,0.13850343123028966,0.114096106924381,0.10950898310316642,0.13117995827705164,0.06156930556370297,0.07899782777713568,0.07823739884033333,0.08040532367796302,-0.10964467061757718,0.06619124820775242,0.10875537779916726,-0.04761846565995538,-0.09868666223074032,-0.021390325106929807,0.09317672353998337,0.12132443302363857,0.3516654669036452
0.5890519459912348,1.1431489813451106,1.2975667455129587,1.3429629026590577,1.2638287669680819,0.005642279703046316,-0.857678972303332,-0.8585684973721541,-0.9594583003976274,-0.7496174588566784,-0.9114065257095334,-1.1754466439793887,-1.234258758787534,-1.4532601765372992,-1.3713002848472513,-1.4533270256208772,-1.6709956837464623,-1.5129658575167624,-1.685613215988975,-1.83367880934283,-1.660075961337669,-1.8403633156008976,-1.6475461310015502,-1.7215559074677416,-2.0094908939040774,-1.7187888580322934,-1.6835576820626492,-1.2475473513535003,-0.949649549442941,-0.9913671171234109,-0.6855531975229299,-0.18277499733277366,0.04136100001219259,0.2710680753316419,0.4914392157251831,0.5112837833638587,0.8186784777148415,0.9092859568040693,0.8457511703697412,1.004361276802381,0.7102533856734727,0.6532564396130911,0.7849716216906802,0.8191496783078708,0.8781848780577858,0.24074520033815855,0.983998472952321,0.8529785917114014,0.28062186488681046,0.4719362820873204,0.5568107938213769,0.7496357389459157,0.5430192448345587,0.6705745642547309,0.43904730700887407,0.6250439751094302,0.4460655057976751,0.3753616225905471,0.47894166394656323,0.38902863123203446,0.779352378197542,0.38036070763795526,0.13683846298707364,0.1943854312441441,0.21644226123953159,0.6919259806047151,0.8696780356238955,1.1098027484824957,0.5338467664731177,0.21096512985083618,0.47287414959868784,0.13498824119352984,0.0518241703218799,0.5072683247794644,-0.10831340148154377,-0.28240543399109036,-0.09849321078894586,-0.00906101790319843,0.08378841448781885,-0.2729368895831012,-0.17379585858403324,-0.157124008766941,-0.05808383946412595,-0.19784090095496118,-0.3584170339093885,-0.2414362945768705,-0.02830331963033204,-0.25187814153677046,0.5106882736328555,1.4004512045624797,2.450713939861327,2.925339819618055,1.983907693959305,-0.048967481159661146,-1.535309434896972,-0.24228473510364978
0.5113892010486625,0.813935880735537,1.5609594855942155,1.992089533774691,1.6328658786218775,1.3699754728077338,1.4195520602604337,0.9788949118483,0.19471035360563962,-0.2651558438846325,-0.3382097089769997,-0.18984102214446458,-0.13353803965865027,-0.33838425042721765,-0.4272553124475286,-0.291479404729829,-0.30054574890719127,-0.4699008863553831,-0.5810385740269898,-0.7031927896772764,-0.8663564453935688,-0.8705977433241507,-0.7791776704455919,-0.842187284761668,-0.8969213041693472,-0.8317117920529403,-0.9424139152197674,-1.0943480507182959,-0.9958606826361571,-0.9674907657812556,-1.1206716115634925,-1.1922867838451536,-1.2847876204394197,-1.3839072200154567,-1.3296504930144093,-1.4022091923661306,-1.6471428284674212,-1.6856490065745595,-1.5545152299260692,-1.5023631935563717,-1.4492086219778832,-1.3496978798672625,-1.3312600983250638,-1.3047920831436564,-1.154550626764721,-1.0548626591880321,-0.9871462762674759,-0.6954562094875734,-0.4362589893784094,-0.5773909261190204,-0.6423597614283594,-0.12037625923605205,0.353083242079082,0.18660255492410635,0.10337400794811774,0.4885536947195299,0.5770868421600404,0.40609495766787684,0.5373416841369423,0.589834309049797,0.5245509814712609,0.7255439607807209,0.6884534854309193,0.35344783597748397,0.4395461186270866,0.7186027439546468,0.6956541269650377,0.6102633086730914,0.6071798871383196,0.656168785697243,0.728951695871153,0.6909125063644798,0.7219776878102342,0.8800921970349895,0.8488985447181998,0.8535954920362165,1.1612438827048188,1.2763073406309469,1.1036693301180764,1.1856563639496622,1.4054744473882528,1.38006666873017,1.4860922310364497,1.8061647400785552,1.4458756211056303,0.696151695251707,0.9358102550628284,1.5051036078760878,1.2029365003034087,0.8616014891128221,0.7088159073876361,0.1384411374465708,-0.334337659249459,-0.9758919867049365,-1.8720900963533533,-1.2451240987186438
0.7933707015758904,2.063575615811358,3.6304879756229624,3.8377703969487547,2.4787333545448926,0.7014380525996986,-0.7703051070823597,0.3816615814040652,0.7680499173542125,0.2590872124717597,0.5328962534049836,0.20006417630634715,0.3521170810893332,-0.3140644850142472,-0.3220997347987246,-0.4643069859335733,-0.5583700900697475,-0.6706946247373178,-0.7533990140746141,-0.8896920715033024,-0.9859977362098679,-1.0686939830272189,-1.055052648470317,-1.1309578225508456,-1.5259319632637038,-1.4886518880559658,-1.5180323115675514,-1.6564044860705913,-1.7669774943304524,-1.812183156668243,-1.8017206216880453,-1.878588523095944,-1.7124729736900919,-1.5861406709630899,-1.3397302245017069,-1.1488374895267282,-0.9862172927260743,-0.24160475290739983,-0.14733871907969767,0.03483422847999226,0.6104035034684955,0.482864439075612,0.8851410530403313,0.8358249260041842,0.8865746793853825,1.0606089601205428,1.0104494288579537,0.9332248247614846,0.826413811503799,0.8420312351265087,0.7974772960641497,0.6494632219089885,0.5855766887376773,0.6558083358651475,0.5255499914903049,0.47633055939163266,0.564905806134491,0.586377470390578,0.5313313917538991,0.4084965023933162,0.5020101573255707,0.41957188765557607,0.42710504553423584,0.3696707758500685,0.3404896028172948,0.32126673167773,0.05009189747702598,0.36490046546132254,0.3089890581093117,0.0036372577242353476,0.03376944823597332,-0.00022368737176010323,0.15095534174401962,0.38962105549058174,0.35001882406686313,0.44601810886861926,0.4708735128916902,0.4326193309336463,0.14681069856687975,-0.1424068751687265,-0.08857205065739031,-0.2369981473795312,-0.3789874604496688,-0.5303073775976698,-0.2746578449616119,-0.32081340764473487,-0.49051955703415895,-0.42296878936248555,-0.39897774901534566,-0.4462920023391911,-0.474894986088386,-0.37947155839165647,-0.3468844195281959,-0.34358884013148466,-0.45147934043155974,-0.3948489083583961
0.4728811532799708,1.1810160328459478,2.233139993300444,3.924353761984026,2.802633974160799,1.0140275237505263,-0.5890428225673957,-1.1206690993882111,-0.1258522851700963,0.11765506305838405,0.20285789977203936,-0.3880124780058826,-0.20956103983110577,0.25980491541703765,-0.2950036184700615,-0.10100468171382154,-0.4489636633073535,-0.9459519013056413,-0.7170105864762356,-0.8118236977617609,-0.9648013927972077,-1.0283989674663172,-1.2139950447368442,-1.2475711783213728,-1.3425237176962905,-1.5293587648311002,-1.5657796536439723,-1.5848877354867665,-1.743956588369792,-1.967175732190064,-1.7386400254341183,-2.1099012406077695,-1.7238528070133494,-1.7844454198599808,-1.6832386209251273,-1.3377769301107791,-1.2804520814327673,-0.6689738701528865,-0.6957546385397138,-0.25408799830191753,0.07813266023031605,0.04183229880794099,0.47772566115798265,0.8081397639089267,0.9233241936216292,1.1132941913766046,0.7798777605565655,1.0583205204799888,1.0173243396263085,0.7282406832538085,0.9598481406012245,0.641553716456397,0.8074295351150014,0.8128998609962661,0.3523273146715415,0.5961946326515033,0.8182111865826555,0.6422812254872123,0.4643541052855085,1.4023473183253494,0.24206176118618916,0.05924532713098406,0.8059314421173182,0.06099347390213624,0.5659669948135257,0.3872557599882618,0.10980788532648697,0.4728150681855465,0.16728940212080592,0.18877543153605963,0.43334468500253887,0.33583552502986536,0.30844530409973697,0.8142028752987258,1.1582710592611756,0.5436708349206854,0.9104618568764987,0.7409005225632708,0.05614676251747738,0.2069910931867924,-0.015819404696384716,0.09145228491967546,-0.2227561844893949,-0.2819274149187435,-0.4507050166031768,-0.04123308619559219,0.03740960462868903,-0.19297117805964517,-0.33299561154328855,-0.057371279366873605,-0.04445078190820334,-0.21412510323630818,-0.14791109563116714,-0.14679597249084364,0.0867963879623581,-0.1485703582813853
-0.15821536651086884,0.7408496216887477,2.512759447311297,3.068146259224448,1.6365780565148973,-0.3628297461630178,-1.2334005788067701,-0.09076336434392815,0.46376544711870693,0.26533204432719204,0.3748331455250548,0.11012366118592239,-0.6202724938390535,-1.2471042388750528,-0.6409439696149011,-1.1929635177860372,-1.1850363222280187,-1.3089973426549661,-0.9972650366667644,-1.0096553886830077,-1.3003023376207734,-1.4562743182433167,-1.7248912270261236,-1.4392412722296442,-1.5069538651932706,-1.566824306696397,-1.8665068391581796,-2.0256638519151955,-1.744017403298097,-1.635021932485703,-1.9319794349291393,-2.0685829741792143,-1.6956223860883286,-1.47226421697573,-1.3940313876792862,-1.1108835991136854,-0.6064184685685632,-0.2853059695165079,0.01862704884474168,0.31142331142863655,0.6133508673299846,1.1952551827863191,0.8979195658412225,0.9898912087767553,1.2063253910547411,1.142786593515408,1.1437531407939385,1.12991145998583,1.021888970047996,0.9554888708844117,1.0116463835938372,0.8977964931596722,0.6570513397793213,0.891117234286535,0.9535968709219909,0.5460003953503881,0.8592833588216577,0.44541852006084826,0.360960181356252,1.0487466198237705,0.8320038460912207,0.30079667950147737,0.493948411579884,0.6261039233748981,0.2460316985477012,0.5181645474557731,0.5120048215670248,0.25899156454748945,0.5473418503850578,0.10522002455452407,0.30638705224658147,0.2927698436249484,0.06182824408468926,0.4914057337990055,0.48409343923402315,0.7680154407143468,0.5818978607500679,0.6580965176643276,0.5818390637138525,-0.05794370514839173,0.34073329722354073,0.13278921999869397,0.07730243078560557,-0.05929000246932311,-0.07715165242590298,-0.02221839574172206,-0.16216939431578387,0.06901613903894031,0.19315806414424902,-0.05153266188848479,0.06900442989416619,-0.01734624352089428,0.016596702441696403,0.14983211745628727,-0.02644414044345682,0.16632969728290362
1.2323557257220177,1.8605663231247025,2.8442750212325723,3.280396132947932,2.171371940989029,1.354321024954543,0.6089805789011282,-0.7597827231088903,-0.8465660430726069,-0.02019059058091678,-0.25886291448971926,-0.46041022868142756,-0.20296796268291187,-0.3222063219143485,-0.33189739843305466,-0.2882898913036925,-0.3861456009632066,-0.4597946843267748,-0.7980987281689009,-0.9822420090064432,-0.6488108110231576,-0.761301685083987,-1.0566546194863264,-0.9760885558536938,-1.2123291473266968,-1.3907680500683286,-1.2510062178600703,-1.32113331953808,-1.485102863711618,-1.6802352392810878,-1.7444004079187854,-1.619087829290962,-1.7432694018380448,-1.9618691232022623,-1.799499734996481,-1.6282681687556801,-1.6695301375523333,-1.5418044577807741,-1.3302933529652632,-1.2278207439922977,-1.0516155053795484,-0.6910634932966688,-0.3773130275225149,-0.29697479361003104,-0.14399752075647082,0.13049409645642984,0.2860150523485695,0.3665249828556587,0.40701777503446507,0.4076134053988419,0.406323429180684,0.35879748006162776,0.3640709881670247,0.44323650820187016,0.3794728864301862,0.34602614854121283,0.39127604216490847,0.18211741190284883,0.12204484471043901,0.21017346981835028,0.07348584000526612,0.12858845525369325,0.21077056784682616,0.10898599176151695,0.09738004384024014,0.25502473179924295,0.6316933442990693,0.7827001273121997,0.7111797600419353,0.7696206064359645,0.6990722047415664,0.740928225661065,1.0053053754201549,1.1183570278492545,1.1556393148638051,1.2735783892677979,1.4300950145162534,1.3142403247077772,1.0355019611092096,0.9023186919652502,0.6327100233674885,0.46943686570397924,0.5639126555207314,0.47197651769253307,0.44006059366888123,0.5414204016274312,0.38560478703616546,0.1968060555713362,0.17147889789322004,0.10379663308196545,0.13512991456326803,0.21015425950264235,0.06105207926963593,-0.11606573176968783,-0.11369827900043077,-0.024019636748235807
2.70313277527452,2.7229225166676025,2.018924159890294,2.2475363654753022,1.5249448156418428,0.030073535896611134,-0.5642928562875424,-0.797868350003543,-0.9845122584908789,-1.2949237473020907,-1.1843154543536645,-1.397285778537063,-1.3915828982797736,-1.4876879557992384,-1.6259559870112934,-1.615234600274572,-1.7162690991784069,-1.8430058142283297,-1.7603590354073875,-1.8936420349443621,-1.9234344097675153,-2.009122671112378,-1.8534845337647357,-1.9409713873001717,-1.7430882479105367,-1.5870071976860964,-1.37585154968335,-1.0725869114962425,-0.6904878726041015,-0.3845573733763785,0.005868203931574277,0.28795155662707067,0.5673101683126455,0.7678931059619625,0.929161514404182,1.1829608865629766,1.0249440276076018,1.0620929179180316,0.9796442636973801,0.9771886807220588,0.8017564794089993,0.8095528216574772,0.7851132188375708,0.7981414015888898,0.6485241953498528,0.6695856073660306,0.6416008418203888,0.6033801948310514,0.5207867444897145,0.6497645222972812,0.5148062746686509,0.4806697749650868,0.34366034613418767,0.4031433142807759,0.411541790855339,0.3063114715121144,0.25912343711413544,0.38959313568393994,0.25207105982675715,0.2618282917781984,0.11780761041205401,0.13073288578434933,0.30823890651571356,0.09359219830885988,0.09365813462618836,0.0699245134195609,0.218434611374746,0.0643553474137926,0.19203252050536215,0.0805354674804003,0.12441491353646761,0.16499279995428776,0.24680541278726906,0.6017045245346561,0.7900778841602136,0.6362139717581747,0.604269478642514,0.3986355348013119,0.18584109910191998,0.24069560758098354,0.04903644158021166,0.014778480609818442,0.057072319677186574,-0.16035838346166398,-0.023026511844907397,-0.13812174444790218,-0.13732694402565934,-0.07255481505133705,-0.0831720036688308,-0.13919476774102865,-0.12102770994952482,-0.0898808460278619,-0.24441685409183161,-0.12033824960980502,0.12469351840211562,0.2748982526937473
0.4171883314649814,0.6772137665623712,1.929181022379512,3.233151014943075,2.904660949580348,2.664898617806549,1.2224248627096286,-0.2231025283837493,0.31220600688477923,0.4129423490710576,-0.04151021974266737,-0.2309204634081962,0.10192573957577908,-0.10218014529153566,-0.7791401101171105,-0.3708366415338174,-0.5993709308032145,-0.9641591741731693,-0.8611984563634658,-0.9976276756938469,-1.0946012789693145,-1.047182258251825,-1.1105765011047226,-1.2661629690180913,-1.3393416056848155,-1.4411122489606571,-1.596157390081597,-1.6449178155749764,-1.5892834948046666,-1.8948653340913693,-1.8599236697582489,-1.5686940774790512,-2.170023702919138,-1.9049346155801712,-1.5970030058620817,-1.7827714833327284,-1.4576714204623082,-1.2687996376232187,-0.6687045589496711,-0.17916065522752792,0.03631219459308961,0.4187304543850575,0.5511933114897264,0.6718732284309024,0.7770254401567321,0.8763329510283321,1.0281387061719323,1.0694996920112565,0.8773579736660958,0.6741738823774648,1.0486805752017598,0.8520557562383521,0.4977155421670105,0.7696861144157452,0.5621237700194528,0.6783400680754128,0.5957512316249711,0.49460413448854545,0.7128662226288071,0.624796223710791,0.49288148888437594,0.5528064753836576,0.6626425259769081,0.4980760346480371,0.5522780358883115,0.40473306040954404,0.2092764518059306,0.5607199895193842,0.2686829206212704,0.2775289342416034,0.3175128792144311,0.10859771040926439,0.16332356720770097,0.23322845847319434,0.6202742802564076,0.6891448704323377,0.5450773239846652,0.5984139361891029,0.26935933282570756,0.20777114111823838,0.028054209640993318,-0.1766755983342559,0.1954018389899849,-0.09760285984290232,-0.3241431595580837,-0.0022054600552231444,0.05281906598512198,-0.09715514890970953,-0.3239328915447647,-0.19580976639142336,-0.2026279306425928,-0.24807132469633475,-0.17754590303957254,-0.4220709254423486,-0.25420529611284726,-0.027674332148680307
0.7392981299392097,1.879791604682694,2.249581735066717,1.4030541995856087,0.2121812249570313,-1.4901730259790757,-1.0527111160652165,0.15784443022460753,-0.22239401085141425,0.019649524538309888,0.05331313265483179,-0.164171334187264,-0.36882238440238296,-0.9623929579841721,-1.1097068456571348,-1.3478936483312607,-1.0424780795268864,-1.2910154323912868,-1.3712926369845873,-1.2859031361694973,-1.4075784200014565,-1.4154238887490889,-1.476991291448891,-1.7007479403939494,-1.6870243764506088,-1.47503427196553,-1.8340669272122563,-1.916813325845509,-1.940025036540262,-1.7217170402578876,-1.9046705165444457,-1.947747965389075,-1.6466153620720683,-1.7536554213024482,-1.4405117968774481,-1.2939561889130786,-1.2222250113568875,-0.6885275529682049,-0.3726705091675823,-0.23576248050550952,-0.08686291146308256,0.2753757846102634,0.3830425263535475,0.6573867517518418,0.5225876156487136,0.6805855449921256,0.8965497420415921,0.7731636242982232,0.7023255404443141,0.7789783284683403,0.8468825518111706,0.7081437428822563,0.7312424534947595,0.5994481585610827,0.6490220515970052,0.8691302484602316,0.6687383895847603,0.6272103919168688,0.4736801024235163,0.827224829914475,0.8750215124227531,0.5311774112436128,0.705354748858617,0.7647905906260674,0.6675345733006482,0.6613023689600825,0.6617179692092123,0.7561775536656166,0.6830266322595514,0.49926132663019135,0.7093779277499889,0.49811138166008867,0.8863962408338165,0.9602619347555222,1.1073929675671623,1.2318677703837178,0.8557586725855674,1.016482436134384,0.6664157407987036,0.5480765981727334,0.7754802516405233,0.3757935122701116,0.3665153118506794,0.37762405127710286,0.4063314904627738,0.45723338829060284,0.2428587518679389,0.3455045946626135,0.3350030258587245,0.3420424554999547,0.45244723517605656,0.20969042810800884,0.29334537112643816,0.48659321421569834,0.44323100838059665,0.2969500345454925
1.824362761050109,3.1332026794911854,2.7235663723451258,2.3013689715867818,0.750720275767764,0.3451082331972215,1.3924482176969288,1.2348016927969816,1.2114870444803605,1.3701159995981689,0.7326098135374722,0.16381220136009486,-0.008097613464559129,-0.2243894044900424,-0.43342305122791086,-0.48605905468402744,-0.5495775762872823,-0.8614610312967951,-0.9560227795954341,-0.9447220576017444,-1.078240737700123,-1.3672637060098443,-1.3484268405259676,-1.412446850886804,-1.7244372543777229,-1.7686528467276268,-1.8943175636922298,-1.9602443310746964,-2.1945813310801725,-2.189379567644846,-2.1638429161014154,-2.107362477131148,-2.061818849826966,-1.8121670765859708,-1.475256842570428,-1.2297099046426578,-0.790167508898466,-0.39072866255290783,-0.07123595025539199,0.15955218570027102,0.3982330391637597,0.6039130935541376,0.5125482292773343,0.5728977524765201,0.6860487733370477,0.5239963107774562,0.43185892240557033,0.3623253604620914,0.39174129951563424,0.4231160474036394,0.38212541569071995,0.3626637072979941,0.321010163882252,0.39851923366189235,0.3848355981733358,0.4069666960288874,0.5907555553279545,0.5981254506758825,0.35469145646981987,0.5976924093485008,0.5296925061197255,0.5113248910458534,0.545583719506506,0.3805955769236555,0.4423620694896587,0.33297784873376063,0.31524139958733005,0.4490138146814013,0.43262087127718835,0.18729953141499928,0.2190981728610396,0.16365221592146534,0.2303124635131435,0.2951304910933078,0.39575750199113385,0.5569889974880804,0.28087700988941405,0.28444016657489446,0.07425892111473839,-0.18054725223185364,0.02071646117305902,-0.15256522099716033,-0.02939345212442329,-0.09655778201708017,-0.07895023197749032,0.16765369149356613,0.004366718863522977,-0.21846884753892784,0.09482132228848959,0.10073881423424831,-0.1510770297118578,0.02956502005267766,0.08826479733365125,-0.002434982192747316,0.26814721532638675,0.36530541219292884
