0,1,2,3,4,5,6,7,8,9,10,11,12,13,14,15,16,17,18,19,20,21,22,23,24,25,26,27,28,29,30,31,32,33,34,35,36,37,38,39,40,41,42,43,44,45,46,47,48,49
0,107,108,105,106,107,112,106,106,68,79,85,106,45,108,113,84,8,82,48,67,91,105,66,108,87,106,111,104,9,65,73,84,84,65,67,76,107,66,66,53,65,105,66,41,50,97,106,68,85
0,103,104,103,103,105,83,104,103,73,107,110,102,53,105,86,110,12,110,70,74,116,101,95,104,114,103,84,98,17,74,99,88,112,71,94,89,104,95,95,83,47,77,95,69,54,96,76,97,112
0,81,82,73,73,82,85,105,73,99,86,88,81,39,82,87,88,9,89,42,99,96,73,97,82,91,80,85,77,9,75,76,88,87,58,64,89,104,96,97,86,69,104,66,95,98,98,106,98,68
0,74,76,71,71,75,51,72,71,73,81,85,76,41,78,82,85,9,65,42,9,91,71,64,78,87,70,51,72,9,65,74,85,83,86,62,61,71,63,63,83,65,73,64,8,73,96,72,65,67
1,41,43,22,32,104,73,34,22,105,82,18,22,107,108,75,15,103,88,108,108,25,32,105,21,88,18,75,18,102,62,73,85,14,74,15,82,22,14,103,94,83,66,30,104,92,107,44,14,18
1,18,19,108,108,16,68,111,110,23,72,94,99,41,114,72,93,104,75,42,23,102,105,21,77,92,76,69,72,38,72,72,84,92,69,69,70,111,70,21,11,83,73,14,19,92,23,28,72,78
0,76,81,111,81,114,86,115,113,31,86,95,97,28,118,80,92,107,88,28,33,106,108,69,80,96,81,86,80,29,76,80,92,92,61,68,84,119,73,69,16,86,76,68,29,95,115,73,75,96
0,73,74,71,71,74,52,71,71,76,82,86,78,41,74,84,86,8,65,42,73,92,71,65,80,90,71,52,73,9,67,75,57,86,88,61,61,71,62,63,85,67,74,65,8,98,98,74,65,67
0,79,80,78,80,81,54,82,80,79,59,88,79,48,85,85,87,9,85,49,110,93,76,66,81,90,72,54,75,9,67,76,60,86,58,60,59,81,61,62,86,68,107,70,8,77,99,108,63,66
0,70,70,79,80,77,62,79,80,62,66,90,80,24,69,65,87,17,69,25,27,88,78,71,82,91,72,62,69,23,68,79,80,87,66,68,69,118,72,71,59,85,70,66,23,94,115,69,74,75
0,71,71,69,69,71,78,71,69,72,80,81,75,10,71,82,85,10,64,10,10,91,70,63,78,88,70,53,71,10,65,74,79,85,61,63,66,70,63,63,84,65,72,63,9,74,97,71,65,68
0,79,81,75,77,79,56,79,75,78,85,62,79,46,80,86,89,9,66,48,78,70,76,69,83,92,75,56,76,9,69,78,61,88,91,65,61,77,67,68,88,70,77,69,9,79,101,78,71,70
0,73,73,95,95,94,76,95,95,68,78,103,95,11,96,100,103,107,101,11,15,108,93,65,96,105,95,76,90,9,65,92,102,101,64,81,75,96,88,88,101,86,91,66,9,95,114,73,90,105
1,24,26,21,24,25,29,24,22,43,34,30,22,93,26,30,33,85,41,94,69,21,22,94,25,6,22,30,23,91,22,25,30,4,36,40,36,23,38,39,83,64,24,40,91,73,96,24,40,42
0,106,108,93,107,106,65,107,93,42,71,78,89,113,110,67,78,106,75,113,112,86,105,113,87,81,82,65,61,104,52,63,74,73,18,73,66,93,69,111,12,85,51,98,108,94,114,106,114,86
0,73,74,70,73,73,78,74,72,68,81,86,75,9,74,82,85,9,84,9,9,91,73,64,78,88,71,53,72,9,66,74,85,84,86,65,65,74,65,66,84,66,73,66,8,74,97,73,67,67
0,53,54,106,108,53,66,109,108,48,70,92,90,19,54,69,75,106,75,114,113,112,105,113,99,93,83,66,94,106,53,64,75,77,62,73,69,108,112,112,13,85,54,45,109,94,114,31,114,82
1,84,84,90,89,88,89,91,92,78,91,94,89,64,92,92,97,18,94,70,72,103,83,86,91,98,83,87,83,21,76,86,92,96,89,96,93,97,89,86,59,14,83,77,63,14,73,79,89,98
0,108,30,108,109,111,70,111,111,33,75,93,89,44,113,74,95,105,78,44,44,102,105,32,89,94,82,71,79,40,77,83,90,90,71,74,19,111,71,22,60,84,80,19,41,93,107,30,24,95
0,74,74,69,70,74,51,70,69,73,82,85,77,8,74,83,86,8,85,45,72,92,70,65,80,90,70,52,73,8,66,74,86,86,58,61,85,70,62,62,50,66,74,63,8,75,98,108,64,67
0,91,96,78,79,93,59,93,79,28,62,106,78,114,96,62,64,107,108,115,25,72,78,114,101,69,97,60,96,105,93,95,65,65,56,117,65,80,114,113,102,86,96,84,109,95,115,29,115,74
1,28,32,80,100,28,52,105,80,27,56,66,79,108,32,51,64,103,59,109,109,72,98,107,78,67,78,51,79,102,39,46,64,63,19,57,50,86,54,106,12,82,41,23,104,91,109,28,56,69
0,38,38,16,26,38,10,29,17,103,11,14,16,112,38,10,10,106,24,113,104,16,26,102,17,11,15,10,16,104,38,15,11,10,56,11,37,23,10,10,90,84,38,32,107,94,103,39,10,19
0,106,107,104,105,106,111,105,105,72,76,78,75,41,107,78,81,10,78,42,44,87,104,121,75,86,106,111,104,10,103,71,75,82,68,72,75,105,122,121,57,89,104,66,40,98,121,106,124,82
0,74,76,72,75,76,53,76,73,74,80,86,76,10,77,82,85,10,64,11,74,91,72,68,78,87,70,53,72,10,65,74,85,83,56,63,59,73,64,65,83,65,73,66,10,74,96,73,64,68
0,74,74,76,75,42,73,78,78,42,76,77,74,41,79,78,80,33,80,43,45,87,72,40,75,85,67,71,69,39,48,70,75,82,39,75,79,81,72,72,29,89,103,36,40,98,43,105,74,83
0,76,78,72,73,78,53,74,72,76,81,82,76,43,79,83,85,8,84,47,76,91,73,64,79,88,70,53,72,9,66,74,57,85,58,62,84,73,64,64,84,66,74,65,8,75,97,74,66,68
1,47,33,26,26,48,76,26,26,105,83,93,91,107,34,79,93,103,90,108,108,101,26,105,89,92,84,76,24,102,62,82,89,88,77,15,82,26,14,103,11,82,25,40,104,92,107,48,14,101
1,79,81,73,73,79,81,81,73,80,84,87,79,46,82,85,88,9,67,80,79,94,76,75,82,91,73,57,75,10,68,77,63,87,90,63,64,73,61,62,87,68,76,71,10,77,100,77,63,72
0,88,93,93,93,88,91,93,93,83,96,102,93,13,93,96,107,29,99,74,13,113,89,85,101,110,92,91,89,29,83,95,100,106,84,97,94,105,85,86,73,12,88,84,11,17,86,82,88,104
1,88,88,98,95,88,91,94,104,83,96,102,99,21,94,94,105,25,100,22,23,113,94,86,100,110,92,91,94,32,86,95,100,106,89,99,95,107,90,89,75,14,88,86,19,15,88,87,92,104
0,74,75,71,73,74,78,74,71,74,81,86,76,44,74,83,86,9,84,50,74,92,71,65,79,89,71,55,73,10,66,75,86,85,86,65,84,74,66,65,53,66,106,66,64,74,98,107,66,70
0,106,26,106,107,109,68,109,108,37,70,89,87,50,111,70,73,104,80,51,36,94,103,111,86,90,85,68,60,108,57,69,80,80,70,75,17,109,19,18,11,83,60,16,32,92,112,40,21,83
0,75,76,71,72,76,51,74,70,76,82,88,78,40,81,84,87,8,64,42,76,93,72,62,81,90,72,51,74,8,67,76,87,86,56,61,57,72,62,62,86,66,75,64,8,75,99,75,64,66
0,76,81,70,74,76,49,76,69,78,86,58,69,41,81,87,89,8,61,42,77,66,72,72,83,93,74,49,77,9,70,78,55,89,90,58,82,73,59,61,89,69,78,66,8,78,101,76,58,63
1,109,25,101,109,111,69,111,102,39,76,83,88,46,111,71,80,106,80,42,42,101,106,16,88,84,84,69,83,109,54,71,79,80,73,77,19,109,17,16,12,85,18,17,40,94,106,107,16,83
1,108,24,106,106,110,66,108,107,32,79,92,85,48,112,68,92,106,92,113,112,99,105,112,85,93,84,66,81,104,80,81,91,89,40,75,25,108,76,77,64,85,81,17,41,94,113,36,79,89
1,17,16,104,86,16,80,16,105,22,87,94,96,31,16,81,92,104,90,31,31,100,15,108,86,95,86,80,78,104,75,81,92,92,66,13,77,110,68,14,54,83,77,14,106,92,110,23,70,96
0,75,76,76,76,77,57,77,77,71,79,85,76,42,79,81,85,10,82,43,45,90,73,69,78,87,73,57,72,10,49,74,84,83,62,67,65,77,68,69,56,66,105,67,40,75,97,106,70,73
0,77,79,75,78,78,56,78,75,77,82,87,78,43,80,84,87,8,70,46,76,93,75,69,80,90,78,56,74,9,73,76,86,86,88,66,86,76,66,69,85,67,75,69,8,76,98,107,69,71
0,106,107,106,107,109,67,108,107,30,76,91,85,42,110,71,91,103,79,42,43,99,104,12,85,91,81,70,81,108,79,80,88,87,42,76,23,108,75,26,62,82,82,24,38,91,111,32,14,84
0,90,91,100,97,91,93,94,105,85,95,104,100,24,96,96,107,29,99,23,26,114,91,91,102,111,93,94,94,35,85,96,101,107,93,101,97,110,92,91,73,14,89,85,21,17,87,88,94,106
0,76,76,76,76,76,81,76,76,72,83,86,78,47,76,85,88,9,67,47,73,94,76,69,82,91,74,57,75,9,68,76,84,88,89,63,65,76,68,68,87,69,76,69,9,77,100,76,70,69
0,90,90,99,97,90,95,97,104,85,97,103,100,14,98,97,107,23,100,76,13,114,90,88,101,111,92,95,95,31,85,97,100,107,90,102,98,111,91,90,70,12,88,83,12,14,89,84,93,107
0,77,78,78,78,80,54,81,76,78,81,83,76,43,84,83,86,9,84,47,46,91,75,77,80,90,72,56,73,9,50,75,62,86,59,63,60,78,67,66,53,68,74,69,8,76,99,108,69,74
0,105,108,75,77,105,56,104,77,105,61,85,75,43,108,113,85,9,82,44,45,92,104,67,109,87,75,55,103,9,102,104,83,83,60,64,62,103,65,68,55,65,104,67,40,74,97,106,66,71
0,74,79,72,73,78,52,74,72,80,85,86,71,42,79,87,89,8,62,43,80,65,72,65,83,93,74,52,77,8,69,77,58,89,91,60,88,74,60,65,88,69,77,65,8,78,101,77,63,68
0,108,109,100,101,111,70,112,96,13,75,80,94,20,113,75,79,107,79,16,18,87,105,105,107,83,68,70,102,18,62,68,80,80,56,121,68,103,58,57,44,86,103,100,10,95,105,106,61,84
0,74,75,74,75,76,55,75,75,73,79,82,74,42,79,81,84,9,82,44,45,90,73,66,77,87,70,55,71,9,48,73,84,83,60,66,82,75,66,66,55,65,72,66,9,73,96,73,68,70
0,31,23,101,22,31,68,106,103,41,74,85,88,53,109,72,81,103,79,48,108,96,21,12,84,88,82,69,16,102,56,69,80,82,70,76,22,108,13,14,10,82,59,14,104,91,104,34,14,84
0,74,74,71,71,74,77,74,71,73,80,85,75,43,74,82,85,9,83,46,48,91,71,66,78,88,70,53,72,10,65,73,85,84,60,66,83,71,63,66,84,66,73,66,43,75,97,74,65,70
0,51,51,47,48,50,22,50,48,53,22,32,16,68,52,23,29,84,11,93,95,33,48,93,17,31,16,22,13,91,12,17,27,28,56,29,23,50,8,8,82,42,15,8,91,51,95,50,8,11
0,18,20,110,111,113,65,113,112,18,73,93,85,36,116,67,94,106,77,31,31,101,107,13,87,96,84,67,81,31,76,83,92,91,14,72,71,113,74,14,12,85,82,14,29,94,107,23,76,91
1,111,111,110,111,112,81,111,110,73,84,85,109,65,112,85,88,10,87,71,72,95,109,71,111,92,74,79,76,10,69,77,83,88,120,91,87,111,70,71,59,48,76,71,68,54,101,77,72,91
0,73,74,73,74,74,54,75,75,71,77,83,73,9,77,79,83,8,80,9,12,89,71,66,76,86,70,53,70,9,46,72,82,82,55,66,61,75,66,66,82,64,71,65,8,73,95,71,68,69
0,75,76,77,76,77,61,78,78,73,78,80,76,36,79,80,83,110,81,43,45,89,73,121,77,87,70,60,71,10,50,72,78,83,67,69,68,78,70,70,108,89,105,67,40,98,121,106,72,76
0,79,80,74,79,79,55,79,73,75,85,89,79,10,80,86,89,9,66,10,10,71,75,66,83,92,79,55,76,10,75,78,89,88,88,63,88,79,65,66,87,69,77,66,9,78,100,79,64,69
0,76,76,68,69,76,79,76,67,76,81,86,76,46,76,83,86,8,68,47,75,92,72,71,79,88,71,51,73,9,66,75,86,84,86,63,60,72,61,63,84,65,74,64,93,74,97,74,62,68
1,31,32,16,17,109,72,109,17,37,78,82,87,49,109,79,80,104,82,50,44,100,28,102,87,83,82,72,16,102,16,81,81,79,73,78,78,108,74,101,63,83,16,23,44,92,103,32,103,84
1,78,78,73,74,76,56,76,73,79,84,85,79,9,78,85,87,9,64,9,10,94,74,67,82,92,74,55,75,9,69,76,58,88,59,66,62,76,66,67,88,69,76,68,8,78,101,76,67,70
0,108,109,107,108,109,71,109,108,39,75,83,89,112,110,74,80,105,83,113,45,101,105,24,87,83,82,71,83,104,57,71,80,79,74,79,17,109,14,24,11,84,58,24,42,93,103,107,14,86
0,87,91,93,92,91,92,93,96,80,95,98,92,65,95,96,100,21,99,72,72,106,87,88,93,101,86,91,86,27,79,89,96,102,98,101,98,100,93,90,60,12,86,80,12,15,74,85,95,103
0,111,113,110,112,111,65,113,114,109,71,81,107,15,115,71,79,108,70,16,19,86,109,108,72,83,69,65,64,18,61,68,78,79,60,66,65,113,66,65,44,87,62,59,16,96,108,110,68,77
1,77,79,73,74,77,56,75,74,77,83,85,78,46,79,85,87,10,68,48,77,94,75,69,81,91,73,56,74,10,68,76,82,87,89,65,65,74,66,66,86,68,75,67,10,77,99,76,69,70
0,106,35,103,29,108,72,108,104,42,76,88,88,49,109,75,84,104,82,111,48,95,103,44,85,89,82,73,20,103,55,75,83,85,75,80,36,108,13,14,10,83,21,23,44,92,103,105,14,86
0,74,76,76,75,76,55,77,77,73,79,84,75,39,80,81,84,110,81,45,44,89,72,68,77,87,69,55,71,10,47,73,83,83,60,62,82,76,68,68,83,89,72,66,9,98,96,72,65,70
0,14,14,107,73,14,68,113,86,18,69,93,86,33,14,69,81,106,73,34,32,97,14,12,85,95,74,68,72,30,72,74,82,93,15,70,72,114,67,66,54,85,72,13,31,94,110,21,69,82
0,75,77,75,75,77,55,77,75,72,80,85,75,42,77,82,85,8,83,44,46,91,73,68,78,88,71,54,72,8,65,74,85,84,59,65,83,75,67,68,84,65,105,67,8,74,97,106,70,69
0,91,92,114,93,94,90,117,117,79,95,100,116,17,119,96,99,39,98,43,44,105,89,91,93,101,84,87,86,15,78,87,99,97,89,93,95,120,92,91,32,41,87,83,15,26,109,82,94,101
1,108,31,108,108,110,69,109,109,43,81,92,88,44,111,71,94,104,91,44,46,102,105,15,87,93,82,70,83,39,78,82,90,89,74,15,76,109,13,15,63,83,83,16,43,93,112,31,15,99
0,109,28,109,110,112,72,111,106,39,75,95,92,50,112,75,95,106,97,114,39,103,106,113,91,95,81,72,82,104,78,81,90,89,71,74,78,111,73,73,60,85,81,20,36,94,114,32,75,102
0,110,113,101,105,112,70,113,102,110,72,83,95,21,115,73,80,108,75,22,24,92,109,108,71,85,67,70,63,19,60,71,79,82,55,57,65,107,56,57,44,87,64,57,19,96,108,110,58,83
0,111,113,111,112,114,79,113,108,17,78,88,101,26,116,83,85,108,81,25,26,94,108,13,79,89,76,79,68,25,68,75,85,86,59,61,73,113,60,60,48,87,68,60,11,96,110,110,62,89
0,75,75,73,73,78,53,75,73,75,81,86,75,44,79,83,86,9,83,45,46,92,73,66,79,88,76,54,73,10,71,74,85,84,58,63,84,73,65,66,84,66,105,66,93,75,97,106,67,69
0,77,77,72,77,77,51,77,72,76,82,86,77,9,77,83,87,8,85,44,44,92,73,63,80,89,72,52,73,9,66,75,86,85,55,61,85,77,63,63,85,66,74,65,8,75,98,107,61,66
0,14,15,11,14,14,60,14,10,73,65,86,10,71,16,82,86,61,12,72,74,9,11,72,79,88,77,59,72,39,15,75,86,84,71,74,71,13,69,71,83,8,74,7,69,17,96,15,72,12
0,108,108,105,107,108,112,107,106,73,80,85,107,45,109,114,85,8,83,46,48,91,106,67,109,88,106,111,105,9,65,74,85,85,59,64,82,107,63,64,52,66,106,66,42,75,97,107,66,72
0,75,76,72,73,78,51,74,72,76,80,85,75,40,79,82,85,8,83,42,76,64,72,64,78,87,70,50,72,9,65,74,56,83,51,57,52,73,64,64,83,65,73,65,8,74,97,73,66,63
0,76,76,72,73,76,54,77,72,80,84,85,72,45,76,85,88,9,67,46,79,94,72,65,82,92,73,55,75,9,69,76,59,88,90,63,88,73,63,65,53,69,76,66,9,78,101,77,65,70
0,37,38,34,36,50,40,35,35,51,41,9,34,101,38,40,8,93,41,102,104,11,34,102,35,10,35,40,33,99,35,35,8,8,57,46,41,36,44,45,91,72,34,43,100,81,104,52,44,41
0,88,91,92,92,91,91,93,93,87,93,96,92,55,94,95,99,14,96,73,60,105,87,85,92,99,84,89,85,18,79,88,94,97,97,100,96,100,91,87,74,55,84,81,57,12,87,83,94,101
0,78,79,73,73,77,55,77,72,9,60,61,78,44,79,84,88,87,64,12,12,69,76,95,80,89,78,54,74,12,73,76,59,85,59,63,60,77,64,69,84,66,75,68,93,75,97,77,66,69
0,109,73,108,72,112,56,112,110,23,75,92,91,34,115,80,91,105,79,35,34,105,105,112,84,95,83,56,71,29,69,79,91,91,20,64,63,113,65,64,52,84,71,63,30,93,113,25,67,93
1,80,81,75,77,82,52,78,77,80,55,61,79,12,82,86,89,10,58,10,10,69,77,44,82,91,51,52,76,10,47,78,56,87,55,60,56,78,46,46,87,68,77,68,9,77,100,78,46,66
0,110,72,110,110,113,84,113,111,17,85,92,105,28,114,87,91,107,89,29,31,100,107,114,83,94,82,83,77,24,70,80,90,90,62,62,71,113,62,63,50,86,77,63,11,95,115,16,65,93
0,75,75,71,75,76,52,75,75,75,80,85,75,44,79,82,85,10,84,45,46,90,71,67,78,88,70,54,72,11,48,74,85,84,56,62,59,75,63,67,84,66,73,66,39,75,97,74,63,71
0,73,76,73,75,75,53,76,75,71,80,85,75,9,76,81,85,8,62,44,69,90,72,67,77,87,71,52,71,9,66,73,84,83,57,62,83,75,63,64,83,65,73,65,9,74,96,73,64,67
0,46,47,11,12,46,26,47,11,75,34,85,10,72,47,82,86,85,38,73,75,12,11,94,78,87,22,27,72,92,16,74,85,83,65,36,69,12,38,38,82,64,73,37,91,73,95,47,37,11
0,75,79,73,74,77,55,74,73,78,85,85,80,45,79,86,88,9,88,47,78,95,73,66,82,93,74,55,76,9,69,77,60,89,91,63,88,74,65,65,53,70,77,66,9,79,101,76,67,69
0,77,78,77,77,77,60,78,77,41,82,87,78,38,78,83,87,108,85,40,41,92,76,73,79,89,71,59,73,36,47,75,86,85,67,72,86,77,69,70,84,88,75,70,35,97,97,76,72,75
0,102,71,74,72,72,70,101,75,48,74,75,72,44,103,76,78,110,77,121,51,85,100,121,73,83,63,68,102,10,56,68,72,79,71,76,75,79,121,120,108,89,102,47,44,98,121,102,74,80
0,75,79,75,77,77,55,77,75,70,85,86,80,48,77,86,88,9,88,49,69,95,75,69,83,93,73,55,76,9,69,77,60,89,59,65,82,75,64,66,56,50,77,66,9,78,102,77,66,71
0,72,75,104,106,72,77,106,105,67,79,114,105,51,108,81,85,35,81,64,66,120,104,65,107,117,105,77,72,10,68,73,83,113,66,80,75,107,76,67,53,43,72,66,42,50,97,71,78,115
0,75,76,76,76,76,55,77,76,73,79,85,76,39,77,81,84,6,82,41,43,90,72,68,77,87,70,55,71,8,46,73,84,83,85,67,65,76,67,68,83,65,72,67,38,74,96,73,69,71
0,106,75,76,76,76,72,105,77,72,77,77,75,118,78,79,80,110,80,43,45,87,104,120,75,86,66,69,69,11,58,69,75,82,68,73,75,79,70,71,108,89,104,67,39,98,121,106,72,83
0,79,80,78,79,79,87,110,79,75,87,91,83,46,79,89,92,9,91,47,103,97,76,100,111,94,82,87,79,10,77,80,91,90,65,67,86,79,67,70,89,70,80,69,98,79,102,109,70,71
0,105,107,76,76,76,111,105,78,73,78,84,76,41,78,81,84,10,81,46,46,90,104,71,77,86,105,111,104,10,102,73,83,83,66,70,81,78,70,71,58,89,104,66,39,98,96,105,71,74
0,77,78,75,77,78,82,79,75,98,59,86,76,43,84,85,87,8,84,44,98,94,75,96,80,88,77,82,75,9,73,75,85,84,58,62,85,77,95,95,84,89,104,67,94,98,97,104,63,68
0,73,75,75,75,76,56,105,77,44,78,80,74,118,79,80,82,108,81,41,43,89,71,70,76,87,69,56,70,10,48,71,77,83,60,66,64,79,66,70,108,89,104,66,38,98,121,106,72,73
0,111,112,109,110,111,90,111,111,83,92,94,87,10,113,92,95,107,94,116,14,102,109,103,88,95,85,89,82,10,79,83,93,92,58,99,93,110,102,102,91,86,83,101,7,95,104,110,104,73
0,19,18,100,72,22,61,107,102,24,65,89,82,32,24,86,86,107,86,33,110,100,15,106,81,90,81,62,73,105,70,74,86,86,60,64,65,108,63,64,51,86,74,13,106,95,108,27,65,93
0,28,28,109,22,28,71,112,109,34,74,94,90,43,115,74,83,106,78,43,38,102,26,21,90,94,85,72,83,39,75,83,83,89,35,76,19,113,77,21,11,85,17,18,38,94,113,28,75,86
0,73,75,75,75,76,75,75,75,73,79,83,75,45,78,80,84,10,82,46,46,89,72,70,77,87,69,55,70,10,63,73,84,83,61,63,66,75,63,70,83,89,105,65,10,98,96,106,70,69
1,18,18,104,81,25,62,108,103,25,72,95,90,36,18,66,94,104,92,37,110,106,80,108,86,96,84,63,81,104,78,82,92,92,65,71,69,109,70,106,10,83,82,14,105,92,109,27,72,101
0,74,76,74,76,76,56,76,76,71,79,84,75,9,77,81,84,8,83,9,9,90,73,69,77,87,69,57,71,10,47,73,84,84,60,65,65,74,67,69,83,65,72,66,8,74,96,74,69,70
0,76,78,73,75,78,51,76,75,78,82,85,77,43,80,83,86,8,85,44,77,92,75,61,80,89,75,51,73,9,67,75,86,85,56,60,85,75,62,61,85,66,74,65,8,75,98,107,64,67
0,77,81,77,77,77,91,77,112,76,92,108,87,14,81,93,97,105,94,15,17,114,77,72,88,98,86,91,81,17,78,85,94,94,61,98,94,111,69,72,45,84,82,72,16,93,75,78,72,100
0,99,102,99,101,100,80,101,101,74,82,85,101,68,103,83,110,35,85,73,73,116,99,93,102,114,96,80,98,10,72,100,84,111,85,89,84,103,93,93,82,63,99,91,90,72,95,74,95,93
0,77,77,78,77,78,60,79,78,73,80,80,77,44,83,81,84,110,82,121,44,90,74,120,78,88,69,60,72,9,50,73,66,84,65,69,65,83,70,70,108,89,104,69,39,98,121,106,72,74
1,27,28,27,27,27,11,27,27,22,70,13,28,99,28,11,12,98,74,106,105,79,26,99,27,15,27,64,29,100,55,66,12,11,72,21,32,28,20,20,9,77,61,20,102,86,106,27,22,24
0,15,15,108,108,111,62,112,109,27,66,91,83,29,115,66,91,105,87,30,30,99,105,12,83,93,82,61,80,108,77,79,90,88,63,74,70,109,74,74,57,84,81,14,28,93,112,23,71,95
0,22,15,108,108,22,61,111,109,18,72,93,89,32,113,91,94,104,89,30,32,102,104,18,89,94,84,87,78,31,73,82,92,90,15,67,69,112,65,65,53,83,79,14,31,92,112,24,67,93
0,108,22,108,109,111,71,111,110,33,76,92,88,48,113,73,91,105,82,42,38,98,106,32,88,93,83,72,80,38,77,78,90,89,73,76,25,111,14,14,60,84,18,14,35,93,113,36,14,88
0,87,91,101,92,91,91,93,105,81,94,103,101,71,93,93,106,18,97,72,13,114,88,89,101,110,92,91,87,29,81,96,100,106,93,97,95,108,97,92,68,13,84,82,21,14,85,80,95,104
0,74,76,76,76,76,76,77,78,40,79,82,76,12,80,80,84,110,81,37,39,89,72,37,77,87,70,74,71,9,46,72,83,83,84,68,71,80,37,69,26,89,71,67,36,98,96,44,39,71
0,73,73,74,74,75,74,103,77,71,76,82,74,44,78,79,82,110,79,45,46,88,101,120,75,85,73,72,102,9,101,71,81,81,65,71,79,78,120,69,108,89,103,65,9,98,95,103,122,73
0,109,81,75,79,80,53,109,77,80,86,90,80,40,81,87,90,8,88,46,45,96,77,99,84,92,81,54,77,9,76,78,90,88,57,62,88,79,64,66,88,69,78,67,97,78,101,108,63,68
0,75,76,74,74,77,55,75,74,75,79,80,74,8,79,81,83,7,82,8,9,90,72,121,78,87,70,55,71,8,65,72,78,83,61,64,82,74,66,66,53,89,72,66,8,98,97,106,67,70
0,75,76,72,74,75,52,75,70,76,81,85,76,43,77,83,86,8,62,47,76,91,72,64,79,89,70,52,73,9,66,74,57,85,56,62,57,74,62,65,85,66,74,65,41,75,98,75,64,66
1,106,31,106,107,109,55,110,75,35,59,91,87,111,111,59,92,104,91,111,36,101,104,111,87,92,81,56,82,108,40,81,90,89,56,62,19,109,67,101,11,83,43,98,106,92,111,40,69,99
0,76,76,76,76,77,56,78,78,74,80,81,77,41,81,82,85,9,82,45,45,91,72,74,78,88,70,59,72,9,65,73,79,84,61,63,82,78,63,74,51,66,105,65,41,75,97,106,65,72
0,69,64,110,74,115,61,116,77,59,67,87,77,20,118,62,86,109,70,11,24,94,74,66,77,92,74,62,72,20,64,74,82,89,64,68,65,117,66,68,53,88,69,64,20,97,113,64,68,79
0,75,75,73,75,76,55,78,73,74,80,80,75,40,79,81,85,7,68,41,42,90,73,70,78,88,69,54,71,9,47,73,60,84,60,64,83,73,65,70,55,89,73,66,9,98,97,73,67,69
0,74,75,75,75,76,57,77,77,71,78,83,74,41,77,80,83,9,81,46,45,88,72,67,76,86,68,57,70,10,48,71,76,82,64,68,81,77,68,68,57,64,71,66,9,73,95,72,70,73
1,18,19,108,78,111,61,111,90,23,73,94,89,35,114,66,95,104,76,36,38,102,80,14,89,94,83,61,78,31,77,83,92,90,66,71,68,111,70,71,58,83,79,15,32,92,111,26,72,93
0,74,74,74,74,74,75,75,74,70,78,84,74,9,74,80,83,110,82,11,14,89,72,66,76,86,74,56,70,9,46,72,83,82,65,71,68,74,67,66,81,89,72,66,8,98,95,47,69,70
1,34,52,75,78,34,56,107,91,32,61,92,91,14,52,57,61,104,77,110,110,98,75,109,90,94,82,55,79,102,78,78,91,89,29,68,61,91,67,69,13,83,52,27,105,92,110,34,67,101
0,75,75,75,75,77,58,78,75,73,79,81,75,44,78,81,83,8,82,48,73,90,72,69,78,88,70,58,71,9,64,73,78,84,62,66,83,75,67,69,56,66,72,67,8,75,97,106,69,71
0,74,74,74,74,75,76,77,77,69,79,81,75,41,79,81,84,8,82,42,44,90,73,67,77,87,70,57,71,8,64,73,78,84,63,67,82,79,66,68,55,66,105,66,39,75,97,106,68,72
0,67,67,111,111,113,76,114,112,14,77,92,85,28,117,81,92,107,84,29,28,101,107,114,85,95,80,78,71,25,67,80,91,91,60,62,69,114,59,61,47,86,68,61,11,95,115,19,61,90
0,94,95,98,98,95,96,99,100,89,99,101,96,55,100,101,104,13,103,80,88,110,92,91,98,104,90,95,91,15,84,93,99,102,104,106,102,104,96,94,79,57,92,87,54,58,92,91,98,107
0,26,20,105,109,112,71,112,106,33,74,90,90,46,115,74,89,106,81,47,38,98,106,12,84,93,83,71,78,39,77,78,89,89,72,75,19,112,76,18,10,85,16,18,40,94,109,27,74,87
0,74,75,74,74,74,78,74,74,71,81,82,75,46,74,82,85,9,84,48,71,91,73,66,79,89,71,57,73,9,66,74,80,85,60,65,76,74,66,66,54,66,106,66,41,74,98,107,69,69
0,12,12,12,12,12,66,12,12,12,69,74,64,54,12,71,74,15,73,14,15,126,12,11,67,78,64,69,61,19,60,62,74,75,12,77,12,98,11,11,49,9,62,57,10,12,93,12,11,12
1,26,27,99,78,26,59,78,78,22,64,83,98,111,27,63,64,105,84,112,111,72,78,111,79,87,78,57,77,103,44,76,83,84,61,68,62,98,69,110,99,84,78,17,106,93,112,27,22,95
0,65,70,100,100,68,74,101,101,18,76,102,99,27,70,76,103,104,106,111,27,112,97,110,98,102,91,76,93,23,66,91,99,98,60,81,74,101,75,109,6,83,69,60,106,92,111,18,81,110
0,72,73,110,72,113,53,113,111,28,82,95,71,13,116,55,95,107,86,26,28,101,70,63,87,95,77,83,72,24,72,83,93,91,58,62,80,113,64,63,51,86,73,63,26,95,115,71,65,93
0,77,73,69,70,79,53,79,70,76,81,85,77,42,81,83,85,9,84,46,75,91,70,62,79,89,70,52,72,9,65,74,85,85,57,63,84,70,62,62,49,66,73,63,8,75,98,73,63,70
0,75,76,67,70,76,36,75,67,20,49,52,53,98,78,90,54,91,52,99,101,66,70,99,52,56,46,36,80,97,76,46,53,52,17,43,44,70,99,98,88,70,81,63,97,79,101,77,101,62
0,76,77,74,77,77,55,77,75,73,81,86,76,41,79,83,86,9,83,42,44,92,73,66,79,88,76,55,73,10,72,75,86,84,60,65,84,76,66,68,84,66,105,67,93,75,97,106,67,70
0,79,83,110,111,79,93,111,111,38,95,96,105,114,83,95,98,106,99,115,42,105,79,114,90,96,83,91,85,105,79,84,94,92,61,118,88,112,103,102,11,85,86,69,11,95,115,30,116,105
0,71,66,109,74,115,69,115,111,13,70,91,75,21,118,79,84,108,74,23,25,88,71,67,74,94,73,69,70,22,66,77,80,90,63,69,66,116,68,67,53,87,70,64,21,96,115,17,69,82
1,37,37,21,21,40,73,102,21,104,84,90,21,106,43,75,84,102,88,106,106,93,31,103,87,90,82,74,19,100,59,75,87,86,76,16,81,102,14,101,68,81,20,29,103,90,105,43,15,99
1,109,74,107,110,112,65,113,107,23,75,89,85,34,116,68,89,106,80,34,32,100,106,113,81,93,78,67,75,29,73,77,87,89,66,71,71,112,69,71,12,85,74,68,29,94,113,25,69,88
0,105,106,103,105,106,110,104,104,72,76,80,104,46,106,111,81,9,79,47,49,87,103,70,106,85,104,109,103,9,102,106,112,81,116,70,79,105,70,71,58,89,103,65,43,98,95,104,73,82
0,111,80,77,77,80,88,110,75,76,88,92,82,44,113,89,92,9,91,45,76,98,77,101,111,94,83,87,79,9,77,80,91,90,91,67,91,77,67,69,89,71,80,68,9,80,102,109,68,71
0,73,75,70,73,73,54,73,71,71,80,85,75,43,75,81,85,9,66,44,72,91,72,67,78,88,69,53,71,9,64,73,85,84,85,65,63,73,63,64,83,64,72,65,9,73,96,73,65,67
0,77,77,76,77,80,56,107,76,75,82,87,77,43,81,84,87,8,84,44,46,92,75,68,80,89,71,56,74,8,66,75,80,86,58,63,63,80,62,68,85,68,106,69,41,76,98,107,65,71
0,71,72,70,70,72,51,71,70,73,60,58,68,42,73,87,89,9,64,81,81,68,70,64,83,93,75,51,77,9,70,78,56,89,58,63,58,70,63,63,89,50,78,63,9,58,102,74,65,67
0,106,75,72,74,106,53,105,74,77,81,86,76,44,107,83,86,8,84,45,47,93,73,95,80,88,76,53,73,9,72,74,86,84,57,62,84,74,63,63,84,65,105,65,93,74,97,106,63,68
1,31,32,101,101,104,65,105,91,39,73,86,88,109,107,69,74,102,77,109,108,97,28,12,83,87,79,67,78,102,50,63,75,75,66,13,70,106,13,23,10,81,52,23,103,90,108,43,13,81
0,75,77,71,76,77,52,75,69,74,80,85,75,42,78,82,85,8,83,43,45,91,73,64,78,88,70,52,72,9,65,74,85,84,58,62,59,75,61,64,84,65,73,67,9,74,97,73,63,69
0,23,25,20,23,25,80,23,22,70,32,84,19,65,25,82,85,84,36,71,71,17,21,92,78,7,23,80,22,90,21,73,83,81,66,41,36,22,92,41,81,64,74,41,90,73,94,49,42,42
0,105,106,74,74,105,111,104,76,71,77,81,74,45,106,79,83,8,80,46,46,88,103,121,76,86,105,111,103,9,102,72,80,82,64,69,67,105,121,67,56,89,104,66,40,98,96,105,123,74
0,29,29,105,17,29,73,29,90,34,82,98,90,45,33,74,97,105,85,42,111,106,26,109,91,97,88,72,87,105,79,85,93,93,74,76,18,113,21,24,11,84,80,21,106,93,110,32,23,100
0,107,108,98,107,109,65,109,97,45,70,82,85,111,109,70,83,104,82,112,46,92,104,111,78,86,82,64,82,108,50,81,82,81,68,72,17,108,74,103,10,83,51,23,106,93,112,34,22,91
0,76,54,77,78,78,58,80,79,49,63,79,76,45,81,62,83,108,67,46,47,90,74,71,78,88,69,58,71,15,51,72,64,84,62,65,62,81,67,71,58,89,73,67,42,98,121,107,69,86
1,35,35,18,80,35,62,35,18,104,64,17,18,107,35,64,13,104,21,108,109,19,33,106,17,16,57,62,82,102,38,55,66,13,46,14,59,19,13,101,96,83,32,27,105,92,109,35,13,18
0,73,73,70,70,73,76,73,70,69,78,83,73,12,73,80,84,110,64,13,13,89,70,66,76,86,70,51,70,9,45,72,83,82,52,66,61,70,65,66,81,89,71,65,7,98,94,71,66,66
0,102,103,100,102,103,109,101,101,105,73,75,100,42,103,74,77,110,76,43,46,83,100,121,105,82,103,108,101,10,100,101,71,78,75,77,76,102,120,120,108,89,101,61,42,98,121,102,122,80
0,109,110,104,109,112,55,112,106,14,77,90,93,30,115,78,90,106,80,28,30,99,106,12,76,91,76,75,70,25,67,78,88,88,17,60,61,111,62,64,49,85,69,61,24,94,108,108,65,88
0,75,76,73,73,75,53,76,73,75,81,86,76,42,76,83,86,8,84,44,46,91,73,66,79,89,71,52,72,9,66,74,86,85,57,61,83,73,64,64,84,66,106,65,40,75,98,107,64,69
0,32,75,106,75,109,58,107,106,29,89,92,90,9,112,89,93,106,92,113,112,107,75,110,88,96,76,83,79,105,75,86,92,92,23,72,66,107,67,108,55,85,75,26,108,95,113,36,70,106
0,21,55,14,49,22,31,19,16,70,56,56,50,96,73,32,58,88,58,97,78,16,18,97,49,57,49,31,21,94,21,26,54,52,37,42,59,18,41,64,85,67,22,61,94,76,98,23,43,46
0,72,73,70,70,73,52,72,70,75,80,82,76,9,73,82,84,8,66,46,75,91,69,62,78,88,70,52,72,9,65,73,55,84,56,62,60,72,63,62,84,66,73,63,8,75,97,72,65,65
1,108,74,108,109,111,86,112,110,28,79,94,85,30,114,88,93,105,90,31,31,104,105,113,85,94,84,87,76,27,71,82,91,91,15,66,64,112,66,66,51,84,74,66,28,93,113,22,79,98
0,74,74,73,74,74,53,74,72,78,85,86,70,9,74,87,89,9,68,9,9,96,71,63,83,93,74,54,76,9,70,77,60,89,92,63,65,74,65,64,51,50,78,65,8,79,102,74,67,66
0,74,75,74,75,75,77,76,74,70,79,85,75,42,75,81,84,7,82,48,46,91,73,66,78,88,70,56,72,9,64,74,85,84,62,66,82,75,66,66,54,65,105,66,42,74,97,106,68,70
0,49,53,73,72,49,73,77,77,47,76,81,72,10,79,78,81,106,79,10,13,87,49,45,74,84,65,60,68,109,50,69,74,80,59,75,68,79,70,45,32,89,69,42,9,98,93,49,72,83
0,111,72,111,77,114,66,115,113,19,75,90,82,28,117,75,89,107,79,22,25,96,108,66,84,96,79,69,77,26,68,77,88,91,67,69,70,115,70,70,10,86,68,65,27,95,114,16,73,83
0,24,17,17,17,26,72,17,17,32,79,97,93,39,17,74,98,105,94,40,110,106,17,108,92,97,88,72,88,105,82,86,94,93,75,13,79,113,12,106,65,84,88,15,106,93,110,29,12,100
0,75,75,71,75,75,81,75,71,77,81,85,75,13,83,83,86,110,83,9,9,92,71,94,79,87,75,81,72,10,71,74,85,83,86,63,84,74,63,63,83,89,74,67,8,98,96,74,66,68
1,32,33,21,21,33,74,32,21,40,79,88,89,51,36,75,82,103,18,40,41,96,30,37,85,92,83,74,20,102,16,81,83,85,40,80,36,108,14,27,66,83,21,27,40,92,106,35,14,85
0,72,75,72,72,73,77,72,71,70,79,84,75,8,76,81,84,7,82,46,47,90,72,65,78,87,70,52,71,8,65,73,84,83,59,64,82,72,63,65,83,89,72,65,7,98,96,72,65,67
0,110,21,109,110,112,65,112,111,32,70,93,83,38,115,67,90,106,78,38,41,104,106,13,84,94,82,65,82,34,74,83,90,90,29,72,71,112,74,13,60,85,80,13,35,94,108,21,76,88
0,34,28,93,17,34,75,110,96,32,79,96,93,46,28,78,97,106,82,44,111,104,17,108,92,96,86,75,86,105,82,85,93,92,75,78,18,112,78,106,65,85,86,16,107,94,110,35,79,100
0,74,77,76,77,77,56,77,77,72,79,79,76,42,80,81,84,9,82,44,45,90,73,71,77,87,69,56,71,10,49,73,77,83,62,68,63,77,69,69,58,65,72,66,10,73,96,73,68,73
0,75,75,76,76,77,59,79,78,74,78,79,75,40,81,80,82,108,81,42,10,89,72,70,77,87,68,60,71,9,50,71,76,83,64,69,68,81,71,72,59,89,104,67,9,98,121,106,73,75
0,28,28,109,109,112,69,112,110,40,75,89,104,38,116,72,79,105,79,39,40,94,106,113,84,92,81,69,75,39,56,77,81,88,71,77,73,116,74,74,13,84,58,21,37,93,113,44,76,82
0,87,88,113,89,89,87,115,115,83,91,97,112,70,118,93,96,13,94,79,73,123,85,83,90,98,88,85,83,18,75,84,96,94,90,96,93,117,90,89,70,20,84,80,19,26,106,82,93,120
0,110,111,105,107,113,74,113,106,17,74,88,100,29,114,75,87,107,79,26,30,96,107,114,76,89,74,75,71,23,68,75,83,85,60,66,67,113,64,65,8,86,70,62,25,95,115,109,67,87
0,76,77,77,77,77,58,78,78,73,79,81,76,47,80,81,84,7,83,47,73,90,74,71,78,88,69,57,71,8,63,73,78,84,59,65,66,77,70,71,56,66,72,67,8,74,97,74,72,71
0,79,80,75,77,81,53,80,75,79,83,84,78,9,84,85,87,9,66,47,48,93,76,67,81,91,74,53,75,9,68,76,61,87,57,63,59,76,62,67,87,68,76,69,9,77,100,77,64,71
1,28,28,98,27,105,77,106,98,104,81,91,91,107,108,80,83,103,87,108,107,99,25,104,86,91,83,77,18,102,59,71,86,87,76,15,81,106,79,103,11,82,60,17,104,92,106,43,103,101
0,30,78,78,78,30,93,78,78,25,61,97,85,39,78,61,98,106,92,40,113,107,78,109,89,97,86,92,85,105,83,86,95,93,20,63,59,113,60,108,11,85,86,23,108,95,112,30,72,106
0,109,110,108,109,110,113,109,108,67,81,82,108,45,110,83,85,10,84,64,67,91,107,65,109,90,108,113,73,10,65,74,115,86,119,88,83,109,66,66,53,45,74,67,61,49,67,108,68,87
0,107,108,107,107,110,60,108,108,29,67,78,95,112,111,67,79,105,79,113,39,85,104,112,76,81,83,60,82,108,46,80,78,75,23,70,68,108,69,24,12,84,49,99,37,93,113,32,71,101
0,108,109,108,109,111,58,112,110,32,63,94,89,33,115,60,63,105,67,34,33,102,105,112,89,94,85,57,83,109,81,82,93,92,60,62,63,112,67,106,12,84,84,100,28,93,113,38,69,97
0,75,76,76,76,76,57,79,79,74,62,80,75,41,79,81,83,8,82,43,45,89,73,121,78,88,68,56,71,9,50,72,78,84,59,65,62,79,71,70,56,89,72,67,40,98,72,106,67,72
1,80,82,75,77,81,89,77,74,79,63,93,68,10,84,90,93,8,70,10,103,99,77,101,86,95,84,89,80,10,79,81,92,91,95,64,63,77,100,100,90,71,81,71,99,80,102,81,102,70
0,33,33,99,19,33,66,104,101,41,71,86,87,49,33,71,74,102,75,48,106,93,28,103,79,89,79,68,14,101,51,75,85,84,69,72,16,106,72,24,61,81,54,24,102,90,105,37,16,82
0,108,66,98,98,108,77,108,98,107,80,85,92,114,112,80,83,106,84,114,106,94,105,57,74,87,71,77,69,109,64,71,83,83,48,54,81,101,56,57,44,85,66,57,108,95,103,107,58,92
0,78,79,73,78,78,55,78,71,76,82,85,78,8,81,84,86,109,68,9,13,92,75,67,80,89,73,54,73,9,44,75,60,85,88,66,63,73,65,66,85,67,74,67,8,97,98,75,66,72
0,70,76,70,70,76,50,70,70,78,82,87,76,42,76,83,86,9,84,43,78,92,70,64,80,90,71,51,73,9,66,75,55,86,53,59,85,70,62,62,85,66,74,64,9,75,98,75,64,67
0,75,75,73,73,75,77,78,73,76,80,85,75,10,81,81,85,10,67,10,11,91,73,71,78,88,70,56,72,11,66,74,85,84,85,66,64,73,66,66,84,65,73,67,10,74,97,73,66,71
0,23,16,108,109,111,67,112,110,33,74,86,88,42,114,70,75,105,78,41,42,102,105,14,83,92,81,68,78,37,71,82,83,89,18,75,73,112,74,15,12,84,16,15,37,94,113,24,76,81
1,102,46,82,101,43,53,101,82,40,106,67,82,20,102,54,66,104,110,21,22,116,99,112,102,67,94,53,97,109,43,56,63,66,51,57,59,83,53,38,26,83,98,94,15,92,113,43,55,74
1,70,56,14,67,73,56,18,14,70,62,60,55,98,74,57,61,91,67,99,102,12,67,99,55,61,54,55,49,97,47,50,58,57,62,66,67,18,66,68,88,69,48,63,97,78,101,72,68,70
0,106,107,84,85,106,64,108,84,45,70,82,86,113,108,66,70,106,94,114,45,79,103,99,85,74,83,63,99,104,51,64,71,73,61,74,71,87,74,99,11,85,100,98,12,94,100,104,76,83
0,0,0,63,0,0,39,0,65,118,40,49,61,118,0,41,45,66,44,119,9,74,0,73,38,49,36,39,31,71,28,38,44,46,44,47,43,70,116,119,17,45,31,1,112,54,74,0,118,71
0,75,76,76,76,78,55,78,78,47,79,80,75,41,82,81,84,108,82,41,43,89,74,74,78,88,69,57,71,10,49,72,63,84,59,64,62,83,63,74,34,89,72,67,38,98,121,106,65,74
0,78,80,73,77,78,53,77,73,79,83,85,78,10,80,85,88,9,65,44,79,70,76,66,82,91,74,53,75,9,69,77,58,88,90,61,59,77,66,66,87,68,76,67,9,77,100,77,67,70
0,81,82,76,79,81,50,79,76,83,87,57,72,44,82,88,91,8,89,82,83,63,78,82,84,94,76,51,78,9,72,80,56,90,92,56,90,78,83,82,90,71,79,75,99,80,103,80,85,80
0,75,76,75,75,75,56,76,75,71,79,81,75,41,76,81,84,8,82,42,71,90,73,67,77,88,69,56,71,8,64,73,78,84,62,66,82,75,67,67,56,66,105,67,8,74,97,106,70,70
1,35,35,84,22,106,63,106,84,40,67,91,84,110,109,67,70,104,76,111,109,101,27,105,87,91,82,64,82,103,50,80,74,75,66,72,19,108,14,102,11,83,52,25,105,92,109,36,15,99
0,59,59,60,59,60,45,62,63,37,61,63,59,28,64,63,66,97,64,105,32,72,58,105,60,70,50,44,54,0,35,57,60,66,50,56,53,66,55,55,93,76,88,52,27,85,105,89,57,60
0,72,74,71,72,73,80,74,72,77,83,88,78,43,74,84,87,8,64,44,77,94,71,65,81,90,73,53,74,8,68,76,87,86,89,63,63,73,64,65,86,67,75,64,8,76,99,108,66,68
0,77,78,78,78,79,58,80,80,76,63,83,77,46,82,83,85,8,67,47,8,91,75,73,79,90,71,59,73,9,50,74,64,86,61,65,66,80,73,73,60,67,74,69,7,76,74,75,75,73
0,75,76,72,72,77,55,72,72,75,79,85,75,43,77,81,85,8,82,44,45,90,72,64,78,88,70,55,71,9,64,73,85,84,62,67,83,72,64,65,53,65,106,67,8,74,97,106,66,71
1,35,35,89,89,35,70,105,90,41,73,91,88,51,107,73,75,101,77,108,107,100,34,102,87,91,81,68,81,100,56,80,88,86,62,78,71,107,13,101,10,80,57,28,102,89,107,46,76,94
1,24,24,107,108,110,69,110,109,30,73,91,89,42,112,72,76,104,77,43,44,99,104,14,87,92,81,69,80,108,54,79,77,87,71,76,16,110,73,16,11,83,55,15,41,92,112,25,75,82
0,71,71,69,71,71,52,72,69,73,55,85,76,9,72,81,85,7,65,9,9,90,71,65,77,87,69,52,71,9,64,73,84,83,57,63,61,71,63,65,82,64,72,65,8,73,95,72,65,67
0,109,109,109,109,111,62,112,110,25,67,91,79,30,115,62,91,105,71,31,34,97,105,69,83,94,76,62,75,29,74,79,86,90,64,68,68,113,70,70,13,84,75,69,33,93,113,28,70,75
0,77,77,10,77,11,56,11,10,72,81,86,77,44,15,82,86,8,67,45,12,10,74,8,78,88,70,56,72,12,47,74,85,84,64,67,69,11,68,9,83,65,73,68,8,74,96,75,9,10
0,109,24,108,108,111,69,111,106,33,78,92,97,46,114,72,81,105,82,47,36,103,105,112,85,93,84,70,84,40,56,82,82,89,73,79,75,111,78,13,8,84,14,18,44,93,113,35,79,88
0,76,78,72,76,78,80,76,72,74,81,87,78,45,79,83,87,7,65,46,75,92,74,67,79,88,73,55,73,9,66,75,86,84,60,63,65,76,67,67,84,65,74,68,93,74,97,74,67,70
0,74,76,76,76,76,76,76,76,69,79,80,75,41,76,81,83,9,82,42,44,89,71,68,77,88,69,74,71,9,64,72,78,84,66,85,79,76,68,68,56,89,106,67,39,46,97,107,70,86
0,14,17,106,107,109,57,109,108,27,66,92,78,34,112,60,91,103,85,26,28,100,103,11,79,92,78,58,75,28,72,79,88,88,22,64,65,110,63,65,52,82,75,13,25,91,111,17,65,91
0,43,65,84,84,43,65,83,84,38,69,96,84,34,65,68,96,105,72,35,37,99,83,111,85,97,84,64,80,12,56,83,91,91,66,73,68,114,75,74,24,84,56,70,16,93,113,43,71,77
0,29,33,17,17,31,68,107,17,37,92,91,87,111,110,70,93,104,95,112,37,101,17,111,87,91,86,67,82,108,76,80,90,87,66,13,76,108,12,13,55,83,79,23,44,92,112,33,12,101
0,43,94,22,30,43,65,35,22,104,14,16,21,114,43,69,12,107,21,114,105,17,30,101,21,15,18,64,17,105,52,59,15,12,69,13,74,22,12,13,63,86,55,78,108,95,103,43,12,18
1,38,38,38,38,38,40,38,38,89,43,37,38,90,38,44,44,104,41,91,89,21,37,41,38,14,29,37,67,106,67,25,40,37,40,46,41,38,42,41,75,83,68,66,84,92,19,71,44,41
0,105,71,75,74,75,72,104,75,47,75,77,74,119,77,77,80,110,78,120,46,87,103,120,75,85,66,70,68,9,50,70,75,81,66,72,71,80,120,119,108,89,103,64,40,98,120,104,122,81
0,73,74,75,75,75,76,105,78,72,78,82,74,39,81,80,84,9,81,41,43,89,72,70,77,87,69,112,70,10,102,73,82,83,65,86,72,82,74,73,57,89,104,66,9,98,96,105,76,85
0,80,76,69,69,81,50,76,69,81,85,86,66,43,84,87,89,9,62,44,80,96,69,78,83,93,74,49,77,9,70,77,55,89,91,60,89,69,61,60,48,50,78,61,9,79,102,78,60,65
0,75,75,75,75,75,56,75,75,74,80,85,75,11,79,81,85,8,83,10,12,90,74,71,78,87,69,55,72,9,46,73,84,83,58,65,63,75,67,70,83,89,73,67,9,98,96,74,70,71
0,73,73,71,72,73,79,73,71,73,81,85,77,8,73,82,85,8,84,45,71,91,73,65,78,87,76,81,72,8,71,74,85,83,85,89,67,73,65,64,83,64,105,65,7,73,96,105,67,69
0,77,77,76,76,77,80,107,75,72,82,88,77,47,77,84,88,8,71,48,78,93,75,65,81,90,72,54,74,9,67,76,87,86,88,65,85,77,64,65,85,67,75,67,8,75,99,107,63,68
0,76,78,72,74,76,51,74,73,77,82,83,77,40,78,83,86,8,60,41,77,66,74,65,80,90,72,51,73,9,66,74,57,86,55,58,56,74,65,66,85,67,74,66,9,75,98,75,68,67
0,74,74,74,74,74,74,76,76,44,77,78,74,120,76,79,81,110,80,121,42,88,72,71,75,85,67,71,69,10,47,71,76,82,67,71,72,76,72,71,28,89,70,66,38,98,95,47,69,74
1,21,21,107,108,110,61,110,109,29,71,92,89,37,112,63,93,104,76,37,33,102,104,111,88,93,81,61,83,30,77,81,89,89,62,66,69,110,66,66,13,83,78,16,31,92,112,27,65,98
0,90,90,90,90,90,95,90,90,54,97,103,90,10,95,100,102,107,100,13,14,109,89,51,96,105,90,97,89,14,83,91,102,101,60,73,72,90,81,81,101,86,90,82,9,95,114,89,79,84
0,76,77,72,77,77,54,77,72,75,81,85,76,41,80,82,85,8,83,46,45,91,73,63,79,88,76,54,72,9,71,74,84,84,58,63,84,73,64,65,84,66,105,66,40,75,97,106,66,71
0,107,108,105,106,107,78,106,105,72,80,86,106,45,108,113,115,35,83,46,72,92,105,68,108,88,75,80,103,9,68,74,85,114,113,118,114,107,68,68,55,65,104,67,41,50,97,106,70,87
0,87,87,82,85,88,93,87,82,52,96,99,91,17,92,96,99,107,95,43,17,108,82,115,92,101,89,93,86,10,83,87,98,101,64,73,69,117,73,73,35,86,87,75,12,95,115,85,75,78
0,75,75,76,76,77,61,106,78,74,78,80,75,119,81,80,83,110,81,121,43,88,106,121,77,87,68,61,71,9,49,71,77,83,67,69,68,80,71,72,59,89,105,67,38,98,121,107,73,78
0,59,60,97,97,60,71,97,97,54,72,102,94,10,69,72,106,106,76,11,12,108,93,54,98,108,94,70,90,18,60,97,102,104,60,76,70,98,71,65,41,86,63,59,10,95,115,57,68,84
0,73,78,71,71,75,50,73,70,76,53,87,67,9,77,83,87,7,58,9,75,64,71,95,79,88,72,49,73,8,72,75,55,84,87,61,55,71,63,62,84,66,74,63,93,74,97,74,65,64
0,74,75,74,74,76,55,75,74,48,79,83,75,39,76,81,83,9,82,40,42,90,72,65,77,87,69,54,71,9,47,72,78,83,59,66,62,76,67,65,33,89,72,66,9,98,97,47,69,69
0,75,76,76,76,76,76,78,78,73,79,85,76,44,78,81,84,8,82,45,73,90,72,71,78,87,70,74,71,10,64,73,84,83,65,69,69,78,67,69,83,65,105,67,9,74,96,106,69,71
0,48,71,72,72,73,70,102,74,44,74,76,71,114,75,75,78,110,77,40,43,84,101,70,72,83,64,59,66,109,48,67,72,79,65,71,70,79,71,70,105,89,101,62,112,98,118,102,73,80
1,35,34,24,29,40,81,34,24,45,85,90,19,51,40,84,88,103,89,108,107,98,29,105,90,92,84,81,22,102,18,76,88,87,79,15,84,103,15,104,70,82,24,31,104,91,107,40,14,98
1,104,36,99,99,104,62,105,93,41,69,80,83,109,107,65,69,102,73,110,108,86,96,109,83,76,78,62,80,102,47,58,77,72,64,14,68,105,14,98,11,81,50,25,104,91,109,45,15,89
0,69,74,66,69,69,78,69,68,70,81,87,68,9,69,83,86,9,61,9,10,92,69,63,79,89,71,50,73,9,65,74,86,85,56,62,63,69,61,61,84,67,74,62,8,75,97,73,63,65
0,75,77,68,68,77,78,76,68,72,80,86,76,42,77,82,85,8,65,47,74,91,68,64,78,88,70,51,72,9,65,74,86,85,58,64,74,69,61,61,84,66,73,64,8,75,97,74,62,67
1,31,31,106,84,31,74,110,107,26,77,90,93,45,31,76,91,106,83,46,112,101,103,110,86,94,84,73,83,105,64,83,87,91,74,80,77,113,76,76,13,85,64,24,107,95,112,31,78,88
1,17,17,103,82,17,62,110,104,29,67,91,83,39,113,66,91,103,75,37,39,97,103,110,82,93,82,64,78,34,73,82,90,90,25,68,68,110,66,69,12,82,73,15,36,91,110,31,68,88
1,32,33,104,17,32,69,109,105,37,76,89,84,45,34,72,79,103,79,45,46,96,29,23,83,91,82,70,16,108,54,76,79,82,72,76,22,110,24,26,11,82,17,24,40,92,110,34,26,82
0,28,27,17,23,28,89,110,17,29,94,93,16,42,112,94,12,104,97,112,37,16,23,105,88,94,82,88,82,103,77,82,92,11,67,12,88,23,102,102,58,83,79,99,37,93,105,31,105,16
1,100,31,80,82,103,36,104,82,102,47,66,82,107,105,50,67,102,68,108,108,76,80,106,82,67,56,61,80,101,30,53,64,62,20,17,36,82,22,96,13,81,31,23,103,90,108,30,98,76
0,104,105,81,85,103,61,106,85,100,69,71,81,112,110,63,67,106,74,113,112,79,85,112,87,70,80,61,82,105,51,58,66,67,61,72,66,85,73,100,100,85,54,96,108,94,113,106,75,78
0,75,76,75,76,76,78,106,75,72,80,86,76,50,77,82,86,8,83,51,69,91,106,68,79,88,71,55,72,9,66,74,85,85,62,67,83,76,66,67,55,67,106,67,44,75,98,107,65,70
0,75,76,75,75,75,79,108,75,70,82,86,77,46,76,83,86,9,85,47,70,92,75,69,109,89,72,56,73,9,66,75,86,86,83,64,66,75,67,67,55,67,75,67,8,76,98,107,70,69
1,19,15,108,73,20,62,111,74,17,69,94,86,32,114,64,94,104,80,31,32,100,73,13,73,95,78,62,74,29,72,82,91,90,15,67,65,111,65,66,54,83,74,14,29,92,108,20,67,82
0,70,68,10,54,68,49,14,10,69,52,53,54,77,70,85,88,87,58,75,74,9,66,95,81,89,47,48,74,93,73,75,53,84,46,61,57,16,62,62,84,65,75,61,93,74,97,70,64,64
0,107,108,106,107,108,75,107,106,71,78,79,106,43,108,112,82,33,81,44,45,88,105,121,107,87,68,63,70,11,63,72,77,83,112,69,115,107,69,71,108,89,104,66,38,98,121,106,71,84
0,73,74,70,71,73,53,73,70,78,82,87,77,8,74,84,87,8,66,8,78,93,71,64,80,90,72,52,73,8,67,75,86,86,88,63,62,71,62,64,85,66,74,64,8,75,98,74,64,66
0,77,79,76,78,79,53,80,75,77,82,85,76,44,82,83,86,9,84,45,46,92,75,65,80,90,71,53,73,10,66,75,60,86,57,61,85,78,62,63,51,67,74,67,42,76,99,108,64,69
0,73,75,75,75,75,57,76,76,70,78,78,75,41,79,80,82,10,80,48,44,88,72,121,76,86,68,57,70,10,61,71,76,82,63,67,81,76,68,68,55,89,104,66,40,98,95,105,70,72
0,48,71,73,71,47,71,102,74,45,74,77,71,118,74,76,79,110,77,119,46,85,68,119,73,83,65,68,66,10,51,68,73,80,65,76,71,80,71,71,107,89,102,44,113,98,120,103,74,80
0,74,77,70,77,74,80,77,72,73,83,88,77,44,77,84,88,7,65,49,73,93,73,66,80,90,72,53,74,8,68,77,87,86,88,65,64,71,64,65,86,67,75,66,7,76,99,76,65,68
0,74,74,72,73,74,78,74,72,69,80,86,75,40,74,82,85,110,83,41,43,91,72,120,79,89,71,53,72,8,66,74,85,85,57,63,83,73,121,66,84,89,105,65,8,98,98,106,123,67
1,17,17,109,110,112,66,112,111,29,73,95,89,41,115,71,97,105,89,40,31,105,106,113,83,95,83,66,78,33,78,85,91,91,69,74,72,113,73,74,11,84,79,15,38,94,113,17,74,95
1,104,33,98,26,107,60,104,98,41,67,79,81,109,107,64,68,102,76,109,107,91,27,102,80,88,80,61,79,101,46,64,76,76,64,69,17,104,72,24,12,81,48,20,103,90,102,43,21,76
0,104,105,104,104,105,73,104,104,108,77,77,105,68,105,78,80,8,80,69,108,87,104,69,74,85,106,111,103,9,103,69,114,82,74,85,80,105,122,70,57,89,104,66,8,46,108,105,75,84
1,20,20,104,20,20,68,20,104,27,75,86,82,42,21,74,78,104,78,43,45,95,17,14,82,90,81,71,80,37,75,75,81,89,29,77,21,110,74,14,11,83,16,15,40,92,107,28,15,82
0,75,76,74,74,76,55,75,74,75,80,85,75,45,79,82,85,9,83,46,48,91,72,66,79,88,71,55,72,9,65,74,85,84,59,64,83,74,66,66,54,66,105,66,41,75,97,106,67,70
0,73,75,73,75,75,76,75,73,70,80,80,75,46,76,81,84,8,82,47,69,90,73,67,77,87,69,56,71,9,64,73,77,83,84,68,83,75,67,67,54,65,105,67,40,50,96,73,69,71
0,107,107,75,75,75,112,106,77,70,78,80,75,44,107,80,83,10,80,45,44,90,105,70,77,87,106,111,105,10,103,73,77,83,64,69,81,79,67,70,55,65,105,66,40,48,96,106,69,73
0,72,74,72,74,74,75,73,72,72,78,79,74,40,77,80,83,9,81,41,43,89,72,64,77,87,69,54,70,9,63,72,77,83,60,65,82,73,65,66,54,89,72,65,9,98,96,72,67,70
0,88,90,92,91,90,91,92,94,87,93,96,91,55,94,95,99,14,96,69,59,105,87,87,93,100,85,89,86,19,78,88,94,97,94,100,96,99,91,87,74,55,87,81,11,12,87,87,93,102
0,72,73,103,72,72,86,73,105,15,89,92,97,10,73,89,92,104,93,111,110,104,69,110,85,94,84,87,71,102,73,78,91,90,41,55,57,108,61,65,9,83,72,62,105,92,111,21,61,102
0,13,14,12,13,23,93,13,13,22,93,97,12,38,14,94,97,34,18,39,22,103,12,19,114,98,11,92,84,41,83,85,96,94,99,19,18,13,18,18,93,17,85,18,18,24,106,25,19,20
0,107,108,106,107,108,78,107,107,69,79,116,107,52,109,113,116,41,82,53,67,92,105,66,109,89,106,76,104,10,68,75,114,114,64,68,78,108,67,67,54,65,105,67,45,51,98,106,69,88
1,73,75,109,75,112,64,112,111,24,67,90,83,29,115,67,90,106,71,30,34,96,106,113,84,93,75,66,75,31,71,78,89,90,63,67,67,116,67,66,53,85,75,66,32,94,114,23,69,84
0,74,76,105,106,75,79,106,106,70,80,87,105,53,77,83,86,36,83,64,68,119,104,68,107,117,76,80,73,10,71,75,85,113,68,70,81,107,69,68,55,66,74,68,63,51,70,73,70,112
0,47,53,76,85,84,57,85,85,27,59,70,87,111,87,60,62,105,88,112,112,94,76,112,80,67,86,56,75,104,47,51,62,63,17,62,59,109,69,111,13,84,76,69,106,93,112,31,104,78
0,78,110,109,110,78,79,110,109,73,82,83,108,41,111,84,86,29,86,43,45,93,76,69,109,91,71,75,74,9,66,75,80,87,69,117,85,110,70,70,57,88,75,70,38,97,121,76,73,89
1,109,72,104,72,112,74,112,106,17,74,86,73,26,115,77,85,106,78,21,17,92,106,12,72,89,71,74,69,23,64,73,84,86,15,67,64,110,63,62,50,85,69,62,10,94,108,14,67,83
0,90,92,94,94,92,93,95,96,89,96,98,93,54,96,97,100,12,100,83,87,107,90,88,94,101,87,91,88,11,80,89,96,98,100,104,99,102,89,89,75,52,89,84,58,59,88,89,97,103
1,33,58,104,107,33,63,106,106,28,68,88,102,23,64,67,73,104,71,36,38,114,104,112,101,91,79,65,96,107,48,64,73,73,65,68,68,110,68,67,16,83,58,37,17,92,113,33,70,76
0,73,73,70,72,78,51,73,72,76,83,88,78,9,73,84,87,9,59,47,79,93,72,63,81,91,72,51,74,9,68,76,87,87,52,63,57,72,64,64,86,67,75,64,9,76,99,73,64,67
0,21,50,14,19,21,81,19,15,65,41,6,10,91,22,83,86,84,43,92,71,94,19,92,78,5,21,80,21,90,19,74,83,82,59,40,58,19,92,91,81,63,74,40,90,72,94,21,62,43
0,73,73,76,75,76,73,103,77,45,76,78,75,40,77,78,81,10,79,43,44,87,72,71,76,85,67,71,68,10,60,71,75,81,72,74,77,80,72,71,31,89,104,65,40,98,95,104,74,83
0,74,74,74,74,76,75,105,80,48,77,79,76,120,80,81,83,110,80,121,44,90,74,121,77,87,68,60,71,9,49,73,77,83,65,71,71,80,72,72,108,89,104,66,39,98,121,106,75,87
0,77,78,75,78,79,56,78,75,77,82,87,77,39,82,84,87,9,84,40,42,93,75,68,80,89,72,56,74,10,47,76,86,85,59,64,85,78,67,68,85,67,106,68,39,76,98,107,70,71
0,76,77,75,76,77,84,76,75,98,86,88,72,8,78,87,88,7,64,8,99,69,75,97,82,90,79,54,76,9,74,76,88,57,58,61,58,76,96,96,85,67,77,68,95,76,98,77,98,68
0,73,73,73,73,78,54,78,73,75,79,80,73,41,79,81,84,8,81,43,44,90,72,63,78,87,70,54,71,9,64,72,78,84,59,64,62,73,65,65,53,66,105,66,8,74,97,106,66,78
0,74,76,76,76,76,56,76,76,73,78,80,75,40,79,80,83,10,81,41,44,88,72,68,76,86,68,56,70,10,47,72,77,82,60,66,62,78,68,67,56,89,71,66,10,98,96,72,66,72
0,76,77,73,77,78,53,78,73,76,81,86,77,10,82,83,86,9,83,10,10,92,73,68,79,88,71,54,73,9,48,75,85,84,58,64,59,78,64,65,84,66,74,67,9,75,97,74,66,69
0,74,75,75,75,76,58,78,78,70,78,78,74,38,81,80,81,108,81,13,15,88,72,69,76,86,67,58,70,10,47,71,76,83,63,69,64,81,68,69,58,89,71,67,12,98,71,72,69,72
0,76,77,75,77,78,54,78,75,76,81,86,75,44,80,83,86,9,83,45,46,92,74,66,79,88,74,55,73,9,71,75,85,84,59,63,84,75,65,66,54,66,106,67,9,75,98,107,64,69
1,25,17,109,77,25,68,113,107,32,73,94,85,40,115,68,96,105,79,41,32,100,75,28,79,96,77,69,75,34,72,79,87,91,17,71,72,113,71,70,12,84,75,14,35,93,112,26,73,85
0,75,77,71,75,77,53,77,70,76,80,85,75,42,77,82,85,9,67,43,74,91,72,67,78,88,70,53,72,9,65,74,85,84,58,65,62,71,63,63,84,65,73,67,9,74,97,74,65,71
0,31,32,21,21,112,67,112,21,108,95,95,87,55,113,69,95,106,99,114,42,104,22,106,90,94,85,67,85,104,80,84,92,91,69,14,76,111,14,105,65,85,86,25,107,94,108,38,15,103
1,29,29,95,20,36,77,29,95,45,80,95,94,54,29,79,82,104,83,48,108,104,29,106,91,95,86,77,86,103,57,84,93,91,76,82,80,111,105,105,12,83,86,22,105,92,108,39,106,101
0,111,82,74,76,82,55,111,76,83,89,93,72,46,113,91,93,9,92,47,10,99,76,102,111,95,84,55,80,10,78,81,92,91,60,63,91,76,64,65,90,71,81,66,9,80,103,109,66,75
0,75,76,76,76,77,61,79,79,44,78,80,76,38,81,80,82,110,81,39,44,89,73,74,77,87,69,61,71,10,48,72,77,83,65,71,68,83,69,74,30,89,105,67,38,98,96,106,71,76
0,48,74,74,74,74,73,103,76,45,76,77,74,118,76,78,80,110,78,121,43,87,70,121,75,85,67,71,69,10,49,70,75,81,43,71,75,76,70,72,108,89,103,42,40,98,121,104,71,83
0,105,106,103,104,106,110,104,104,73,76,82,105,44,106,112,82,34,79,45,46,88,103,121,107,86,105,111,103,10,102,70,114,82,64,70,69,105,70,71,58,89,103,65,41,98,95,104,72,83
0,109,111,79,110,109,60,110,79,41,64,95,79,114,113,63,65,107,99,115,15,81,79,114,90,70,85,60,85,105,80,84,67,66,54,118,67,79,72,102,13,86,86,101,109,95,115,20,116,80
0,66,64,57,60,68,31,66,58,69,58,33,24,74,70,0,1,82,61,73,73,40,58,68,27,0,24,30,22,85,22,23,0,1,73,1,67,60,65,65,59,60,23,58,71,70,69,67,65,60
0,21,21,103,86,110,57,111,86,28,69,95,88,40,111,70,95,105,72,35,110,103,86,106,89,94,85,67,85,103,71,84,90,90,61,64,13,111,64,104,52,84,85,12,106,93,107,22,65,97
0,50,52,76,51,51,74,51,76,47,78,83,75,17,52,79,83,110,80,18,47,89,48,41,76,85,52,27,70,109,48,72,83,81,60,40,60,76,37,41,81,89,71,40,15,98,95,51,39,44
1,29,68,106,108,29,64,107,107,25,69,88,103,39,69,66,72,106,73,40,42,96,105,113,83,91,79,64,77,108,51,67,74,86,65,72,69,109,70,112,16,85,51,23,15,94,114,30,72,78
0,108,110,108,109,111,70,110,109,35,72,93,88,44,111,72,94,105,95,113,45,101,106,113,88,93,82,69,82,38,78,82,91,89,72,78,22,110,102,101,12,84,83,24,42,93,114,39,103,98
0,89,90,92,91,91,90,93,94,88,93,97,91,51,94,95,99,14,96,53,66,105,86,87,93,101,84,89,85,16,78,88,94,101,90,101,96,98,88,87,74,54,86,81,11,12,87,72,89,100
1,76,76,74,74,76,56,76,74,80,85,87,80,51,76,87,89,9,69,52,80,96,74,68,112,93,75,56,76,9,70,78,61,89,91,68,89,76,68,67,55,49,77,68,66,58,69,76,70,72
0,88,90,105,95,88,92,95,105,83,96,105,103,11,95,96,109,22,100,11,12,116,90,86,104,112,94,91,90,29,84,98,101,109,93,100,95,106,97,96,73,11,88,83,10,13,12,84,99,105
0,58,78,78,78,58,59,78,78,57,61,85,77,119,62,81,84,110,83,120,52,90,75,50,78,88,68,57,71,12,59,72,85,83,49,55,52,86,54,52,39,89,72,50,16,98,96,106,81,88
0,111,65,111,112,114,68,113,114,60,73,81,107,13,116,75,81,108,75,13,16,88,109,58,72,85,70,68,66,18,61,70,80,82,61,75,68,115,58,58,47,87,65,58,12,96,109,110,61,80
0,77,77,73,73,77,54,73,73,78,82,87,77,44,77,83,86,8,84,45,47,92,73,65,80,89,71,54,73,9,66,75,86,85,60,64,85,73,65,65,52,66,106,65,8,75,98,107,67,70
0,78,79,78,79,80,58,81,81,77,82,86,78,42,82,84,87,9,85,47,46,92,75,73,80,90,71,58,74,9,66,76,87,86,59,62,60,81,62,73,86,67,107,69,41,76,99,107,63,75
0,81,83,76,81,82,51,81,75,83,54,58,77,9,83,90,91,8,56,9,102,66,78,99,85,59,82,51,79,9,78,79,56,56,50,53,54,78,99,98,88,69,80,75,97,78,101,81,101,61
0,74,73,76,76,76,57,78,79,74,78,79,73,9,81,80,83,9,66,10,11,89,73,71,77,87,69,56,70,10,49,73,77,83,59,64,64,73,72,72,82,64,71,66,9,73,96,72,75,73
0,107,108,106,108,110,64,109,104,41,72,90,88,112,110,66,72,105,76,112,40,101,104,112,87,91,80,66,82,104,47,75,88,86,65,71,68,109,15,16,12,84,49,17,107,93,113,46,71,99
0,52,52,75,75,75,62,105,79,47,77,78,74,42,80,79,82,110,78,43,47,88,71,72,76,86,68,62,70,10,52,71,76,82,65,71,70,81,72,72,108,89,104,67,42,98,121,105,74,84
0,107,77,77,77,77,57,106,77,72,81,86,77,45,108,83,87,9,83,46,46,92,105,67,79,89,75,57,73,9,72,75,86,85,63,65,84,77,69,68,54,67,105,68,40,75,98,107,68,73
0,23,23,110,111,113,68,114,112,35,76,91,105,32,117,71,79,106,81,33,35,97,107,114,85,94,82,70,81,34,60,79,81,90,71,78,74,118,74,73,19,85,68,21,32,94,115,28,76,84
0,75,77,76,76,78,54,78,77,76,59,82,75,9,82,56,84,9,82,121,9,89,73,121,78,88,71,54,71,11,102,73,82,84,58,62,59,77,65,64,53,89,105,67,10,98,97,106,64,66
0,109,34,104,109,111,68,111,101,40,78,93,88,113,111,72,93,106,96,114,44,101,105,113,88,92,85,71,83,104,80,81,89,87,71,14,76,110,13,14,63,85,84,25,107,94,114,37,14,101
0,108,109,106,107,109,62,107,107,76,81,86,106,9,109,83,86,109,84,9,9,92,105,71,107,89,71,62,73,11,65,75,86,85,118,70,84,108,70,70,59,88,74,69,8,98,97,106,73,73
0,89,91,93,93,91,92,94,97,88,94,98,93,66,97,96,100,23,98,68,69,106,88,89,93,100,87,91,87,25,79,89,95,98,98,101,97,99,91,90,74,12,87,82,11,13,87,86,93,103
0,91,92,96,96,95,94,97,99,91,97,100,95,62,99,99,102,16,101,66,67,108,91,90,96,102,88,92,89,23,82,91,97,100,101,104,100,103,95,94,77,12,90,85,61,13,90,88,97,105
1,65,65,109,72,65,63,112,111,61,65,89,73,25,115,65,88,105,69,26,28,95,67,62,73,90,72,63,67,24,64,76,79,88,62,63,65,116,65,64,49,84,66,62,23,93,113,65,68,80
0,78,78,108,79,80,80,81,109,75,82,88,107,58,81,84,88,42,85,62,67,120,75,76,81,91,75,78,75,12,68,77,87,87,74,81,81,110,77,76,59,47,75,70,56,53,76,72,79,90
0,70,70,66,69,72,49,70,68,74,53,54,62,11,72,82,86,7,58,11,9,63,69,65,78,88,48,48,72,9,66,74,54,84,49,55,53,70,61,61,83,65,73,61,8,74,96,73,61,62
0,74,75,70,74,75,53,75,74,77,83,87,78,8,75,84,87,7,63,8,79,93,71,66,80,90,73,53,74,8,67,75,87,86,89,61,62,74,61,66,86,67,75,66,8,76,99,75,63,68
0,12,77,10,10,14,55,12,11,72,79,85,75,39,15,81,83,29,67,41,17,10,11,8,77,86,68,53,70,13,47,72,59,82,60,65,67,12,65,66,82,8,72,66,39,17,95,18,65,10
0,59,61,96,98,97,67,98,98,54,80,104,96,10,99,102,105,105,83,11,11,110,95,113,98,105,95,66,92,8,56,94,103,101,52,75,71,98,77,76,101,84,94,51,8,93,114,59,92,106
1,107,108,104,70,107,112,106,105,71,81,87,77,42,108,83,87,10,85,47,71,93,105,63,79,89,106,81,106,11,66,75,86,85,58,64,66,107,63,63,84,66,106,64,40,75,98,107,64,68
0,73,73,72,73,73,56,108,73,76,81,85,77,43,73,83,86,8,85,45,78,92,73,64,80,90,71,55,73,8,66,74,80,86,57,62,85,73,65,64,52,66,74,65,8,75,98,108,68,67
0,76,79,70,76,77,52,76,70,78,83,88,78,40,79,85,87,110,86,43,44,93,75,64,80,90,71,51,75,8,67,76,87,86,59,61,81,70,62,63,86,89,76,64,8,98,99,76,64,69
1,107,43,79,80,110,53,80,80,36,61,65,81,15,109,61,67,103,65,16,19,73,79,111,85,66,80,54,81,108,79,55,63,61,46,52,54,80,56,110,22,82,82,50,13,92,112,39,58,100
0,76,77,70,72,77,50,74,70,79,53,56,68,9,77,84,87,8,62,43,79,67,70,79,81,91,72,50,74,9,67,75,55,87,52,58,53,70,62,62,86,67,75,63,8,76,99,76,64,64
0,74,76,74,74,76,53,76,74,74,80,85,74,42,76,81,85,8,82,43,47,90,72,65,77,87,69,52,71,9,64,73,84,83,58,64,83,74,65,65,82,65,73,66,9,74,96,73,67,68
1,109,75,110,110,112,85,112,112,22,88,94,105,37,114,89,93,105,92,38,37,105,106,113,84,95,82,85,79,30,75,84,92,91,62,65,68,112,67,68,11,84,80,67,31,94,107,16,70,98
0,76,109,107,108,78,112,108,107,72,82,87,107,46,110,84,87,8,85,48,70,93,106,68,109,90,107,113,74,9,67,76,87,86,65,68,85,108,67,68,56,66,75,68,44,75,99,107,69,74
0,106,109,103,106,107,84,105,104,68,85,88,106,40,109,86,88,9,88,42,43,95,105,97,107,90,80,84,76,9,74,76,88,87,86,66,87,104,96,96,85,66,103,66,37,98,98,106,66,92
0,51,51,48,33,53,92,51,33,52,32,97,33,75,55,96,100,67,36,76,58,106,49,46,93,104,33,90,86,66,79,89,95,100,98,29,35,50,26,45,15,44,86,43,74,53,113,55,28,44
0,74,75,71,71,75,77,74,71,74,80,86,75,44,75,82,86,8,83,45,74,91,71,63,79,88,70,53,72,9,65,74,86,84,60,65,83,71,63,63,84,66,73,66,41,75,97,73,64,68
0,73,73,75,74,75,61,104,78,47,77,79,73,40,80,79,82,10,79,121,44,88,71,121,76,85,68,60,70,10,102,71,76,82,64,68,69,81,121,69,58,89,104,65,41,98,95,105,123,82
0,81,81,74,81,81,86,81,74,79,63,90,81,10,81,87,90,9,66,10,10,97,78,99,83,92,81,86,78,11,76,79,89,88,57,66,61,81,63,72,87,69,79,72,97,78,100,79,75,74
1,58,58,84,73,57,56,112,86,53,66,90,83,21,58,58,71,104,69,36,38,96,58,54,86,94,82,65,58,13,56,59,90,91,59,65,61,116,65,64,38,83,58,54,25,92,112,57,67,76
0,76,78,75,76,79,55,80,75,77,81,84,76,41,84,83,86,8,70,42,44,91,74,65,79,89,71,55,73,8,65,75,61,85,87,64,85,75,66,66,84,67,74,68,8,75,97,75,68,69
1,101,44,99,100,104,66,105,87,105,69,72,87,107,106,70,73,102,73,108,108,79,97,106,69,73,76,66,44,101,44,59,71,69,61,18,60,88,64,18,13,81,45,36,103,90,108,43,66,93
0,42,75,75,75,74,74,75,78,39,78,78,73,16,79,79,81,108,80,42,45,87,42,40,75,86,67,72,69,38,48,71,76,82,43,84,81,79,72,71,27,87,70,35,35,96,43,42,74,84
0,73,74,75,74,75,59,77,76,41,76,78,74,20,78,78,81,108,79,39,44,87,72,73,75,86,67,59,68,11,47,71,76,82,64,70,68,81,69,73,29,87,103,66,37,96,96,47,70,77
1,107,108,103,108,109,68,108,105,38,74,88,87,112,109,70,75,104,79,112,41,99,104,20,86,90,82,68,83,108,49,75,86,85,69,73,18,108,16,20,12,83,61,17,35,93,112,106,21,83
0,109,32,16,16,111,71,111,16,37,94,95,16,51,112,75,96,106,97,114,38,103,29,103,89,95,85,73,84,41,80,84,92,89,74,82,77,16,103,103,58,85,85,101,36,94,105,32,105,104
1,35,19,99,19,35,72,107,100,37,80,91,91,55,110,73,83,104,85,109,109,97,19,107,88,87,84,72,86,103,59,81,84,83,71,16,78,110,16,105,12,83,64,27,105,92,108,36,15,96
1,29,32,21,21,29,85,29,21,42,91,94,21,56,34,88,92,102,95,57,107,100,26,104,87,94,85,85,20,101,20,82,91,90,85,17,88,108,16,103,93,81,21,19,103,90,107,44,16,101
0,46,48,75,74,46,74,76,76,43,76,78,75,17,78,78,81,110,79,18,18,88,72,39,76,85,68,60,70,109,49,72,76,81,65,70,72,80,70,71,28,89,49,40,10,98,95,48,72,77
0,81,83,79,81,82,49,82,80,49,52,91,81,120,84,87,91,12,54,121,102,66,79,99,83,92,81,49,78,13,77,79,57,88,49,51,88,82,50,49,88,70,79,71,97,78,101,109,51,60
0,25,25,103,81,109,60,110,104,35,66,92,81,42,25,63,92,104,86,111,110,101,77,110,80,92,80,60,79,102,77,80,88,89,63,69,16,109,69,18,9,83,80,18,105,92,111,25,71,97
0,75,79,73,74,78,53,75,73,78,83,88,78,9,79,85,88,9,66,9,10,67,74,97,81,90,73,53,75,11,74,76,87,86,89,61,59,75,66,66,85,66,76,67,9,75,98,76,69,68
0,106,72,76,76,76,61,105,78,41,77,78,73,117,106,79,83,110,79,119,40,88,104,119,76,85,68,61,70,9,47,71,75,82,63,68,69,78,69,69,108,89,103,65,114,98,121,105,73,78
1,103,104,104,104,104,104,105,105,101,106,108,103,74,108,108,111,7,110,75,79,116,101,98,105,116,98,102,99,42,87,100,106,112,95,99,110,107,100,100,88,70,100,96,73,79,101,102,100,113
0,72,73,72,73,72,80,73,77,67,83,84,78,62,73,84,86,9,86,64,66,93,73,64,81,91,71,77,74,9,67,75,81,87,81,84,80,89,65,66,54,68,75,66,62,47,100,71,66,89
0,79,81,75,77,79,54,77,76,86,89,92,74,9,81,90,93,9,92,10,104,68,76,101,112,95,84,54,80,9,79,81,92,91,57,59,93,76,66,85,90,71,81,69,99,80,103,110,87,67
0,89,90,91,91,90,91,91,94,54,94,97,91,50,94,95,99,16,97,52,54,105,88,84,92,100,86,89,86,15,78,88,95,98,97,100,97,100,92,89,40,51,87,82,49,58,53,59,94,101
0,75,77,71,71,77,52,74,71,75,80,85,77,9,78,82,85,8,66,45,75,91,73,69,78,88,71,53,72,9,65,74,85,84,56,61,60,71,63,62,84,65,73,67,8,74,97,74,65,67
0,84,86,107,83,84,92,111,109,11,94,96,90,7,113,95,97,105,98,8,17,105,83,104,90,98,87,92,84,104,82,85,96,95,63,102,96,113,104,104,34,84,85,75,107,93,113,84,106,107
0,107,108,105,106,107,79,106,106,70,81,86,106,46,108,83,86,36,113,66,68,120,104,66,107,88,75,81,73,9,71,75,85,113,66,117,112,107,67,66,55,65,74,67,62,74,97,105,69,117
1,54,57,98,98,103,76,104,99,52,76,90,94,105,106,76,84,100,85,106,106,99,96,104,72,88,80,75,71,100,55,72,84,84,65,16,72,106,17,101,12,79,56,46,102,89,107,55,76,99
0,107,108,105,106,107,112,106,106,59,79,86,75,54,108,115,86,9,82,56,58,92,105,56,79,88,72,76,106,10,65,107,85,84,119,68,67,65,57,56,45,67,106,67,54,76,98,107,59,74
1,36,28,98,26,37,70,105,98,45,75,89,85,55,107,71,81,101,78,42,44,98,24,101,85,88,80,70,15,101,50,78,77,84,70,12,75,106,19,30,60,80,24,19,102,89,102,37,21,85
0,74,75,75,75,76,54,78,74,70,79,83,74,41,80,81,84,9,82,43,45,90,72,69,78,87,70,54,71,9,47,73,78,84,58,64,61,75,65,66,56,66,72,66,9,74,97,73,67,69
0,79,80,77,79,80,56,80,79,99,85,88,79,40,81,86,88,9,88,42,99,95,76,97,82,90,80,56,76,9,75,76,88,86,58,62,87,79,96,96,85,68,105,69,95,77,98,106,98,71
1,104,37,101,101,107,70,105,101,51,76,88,86,109,108,76,79,102,80,110,108,95,101,47,85,89,78,70,60,101,57,71,86,85,71,79,74,106,19,29,12,81,61,29,103,90,109,104,20,88
0,74,74,72,75,77,53,78,78,73,79,82,74,44,80,81,84,8,82,48,47,89,72,64,77,87,69,53,71,9,63,72,78,84,58,65,61,78,64,63,51,66,72,66,8,74,97,72,66,69
0,107,108,106,107,108,111,106,106,73,79,82,106,48,108,81,84,8,82,64,71,90,105,69,108,88,106,111,71,9,64,73,114,84,68,69,82,107,70,69,56,66,105,67,8,49,97,106,69,86
0,75,76,76,76,76,58,106,79,74,79,81,77,43,81,82,84,110,82,44,46,91,72,121,78,88,70,55,71,10,65,73,79,84,61,67,66,71,63,73,56,89,105,66,43,98,97,106,65,71
0,67,68,110,69,69,66,113,112,63,70,85,78,13,116,70,79,17,73,13,17,87,69,68,79,95,70,66,69,24,66,73,77,90,67,73,69,117,70,69,56,85,69,65,21,94,115,68,72,77
0,75,77,75,77,77,56,77,75,71,80,86,75,45,78,82,85,8,83,46,47,91,73,66,78,88,71,56,72,9,65,74,85,84,61,65,83,77,67,69,84,66,106,67,42,75,97,106,69,71
0,79,77,74,75,78,56,76,75,81,58,61,62,9,79,88,91,9,65,9,9,70,75,99,84,93,83,55,78,11,77,80,58,89,53,59,60,76,99,68,88,70,79,70,97,79,101,79,71,69
0,27,29,19,26,27,95,27,18,43,34,9,15,39,27,97,99,96,20,41,108,19,25,106,27,9,24,94,25,102,21,87,9,8,43,42,42,24,105,41,94,18,26,20,104,24,107,27,41,22
0,74,76,76,76,76,55,76,76,71,79,84,74,37,77,81,84,8,82,38,41,90,72,69,77,87,69,54,71,9,45,73,84,83,59,64,82,76,68,69,83,89,72,66,9,98,96,72,70,68
0,73,74,74,74,74,61,103,78,50,76,80,73,40,80,78,81,110,77,47,44,86,70,121,75,85,68,62,69,10,49,69,76,81,64,66,69,80,72,72,108,89,103,66,40,98,121,104,75,83
1,39,40,102,20,39,78,106,99,46,88,94,93,55,40,82,93,104,94,109,109,102,29,106,88,95,85,80,86,103,65,84,92,91,80,16,85,109,15,105,95,83,18,31,105,92,108,40,104,100
0,73,75,75,75,75,56,76,76,72,78,79,74,117,78,80,82,110,81,39,41,88,72,69,76,86,68,58,70,9,47,71,76,83,61,69,81,78,68,69,108,89,71,66,36,98,121,106,67,72
0,76,77,70,77,78,51,77,70,76,80,86,76,40,81,82,85,8,83,43,76,91,73,62,79,88,70,52,72,9,65,74,85,84,55,61,84,72,62,61,84,65,73,66,8,74,97,74,64,67
1,104,37,100,30,106,66,106,95,43,73,80,86,109,108,68,73,102,76,109,44,86,30,28,85,80,80,66,81,101,50,69,77,76,68,73,19,106,15,28,12,81,51,27,103,90,102,37,25,80
0,106,107,104,75,106,112,105,104,69,79,84,75,42,107,113,84,7,81,43,46,89,104,70,77,87,106,112,104,9,102,73,83,83,62,65,67,105,66,70,54,89,104,66,41,98,96,105,68,74
0,77,10,77,78,10,52,80,80,11,54,60,76,14,82,54,86,8,58,14,15,67,74,8,78,87,54,53,72,13,48,74,59,83,54,60,56,77,8,9,83,65,73,67,7,74,96,10,9,64
0,106,107,76,76,76,112,105,78,72,78,79,75,40,107,80,83,10,80,42,43,89,104,71,77,87,107,112,104,9,103,72,77,83,66,70,81,81,69,71,58,89,105,67,39,98,96,106,71,75
0,15,15,103,103,15,72,109,105,22,84,92,97,32,15,76,89,105,88,111,111,98,102,110,79,92,79,82,74,105,73,77,87,88,65,71,66,108,69,108,55,84,75,13,107,93,111,15,69,95
1,26,45,76,93,106,55,106,76,108,59,69,73,110,108,59,59,104,72,111,110,77,83,110,86,67,82,54,82,102,44,48,61,64,53,16,54,76,99,108,98,83,45,19,105,92,111,39,100,77
1,21,21,81,82,109,62,109,82,28,67,91,83,37,112,66,91,103,81,33,35,99,80,14,85,93,82,63,80,31,77,81,90,89,24,69,17,109,70,15,59,82,81,15,32,91,106,22,68,90
0,30,33,22,26,28,8,28,24,48,8,10,11,44,28,8,8,94,8,46,48,12,29,45,32,10,10,8,28,44,25,85,8,8,48,8,48,27,44,45,92,15,29,16,43,25,105,30,46,10
0,77,78,73,77,78,53,77,73,97,84,85,76,10,81,84,86,9,84,10,98,94,74,95,80,87,76,53,74,10,72,75,84,83,58,62,85,77,94,94,84,67,76,67,93,75,96,75,96,69
0,30,76,16,23,32,47,24,16,104,90,15,16,113,76,90,11,106,17,114,107,15,22,102,85,14,77,47,76,104,74,78,13,11,54,12,93,16,58,100,90,85,75,61,106,94,103,34,11,17
0,76,74,72,73,77,52,73,72,76,81,85,76,8,81,83,86,8,84,8,9,92,73,95,80,87,76,52,72,9,72,74,85,84,55,61,57,73,64,64,84,65,73,64,93,74,97,73,65,66
0,74,76,70,72,74,51,73,70,72,80,85,74,42,77,81,85,8,64,43,75,90,72,63,78,87,70,52,71,9,67,73,84,84,56,62,83,70,62,63,83,65,72,63,8,74,96,73,64,66
0,73,75,72,75,75,77,75,73,70,80,81,75,120,75,82,85,28,83,121,38,91,72,121,78,89,70,55,72,8,64,73,79,85,62,65,82,75,64,64,53,89,73,65,34,98,68,108,66,87
0,76,78,73,74,78,54,74,74,77,82,86,77,40,79,83,87,8,84,42,44,92,74,65,80,89,72,54,73,8,47,75,86,85,58,64,60,74,66,65,85,89,74,67,8,98,98,107,68,70
1,79,79,74,75,79,52,79,74,80,85,62,69,42,83,86,88,9,62,44,80,69,74,80,83,93,75,52,76,9,69,77,58,89,91,60,88,76,61,64,88,69,77,67,9,78,101,78,63,68
1,23,74,107,74,23,57,110,75,20,66,94,80,32,113,59,91,103,70,33,34,100,74,17,82,94,75,60,74,28,71,81,87,90,18,65,66,112,66,66,53,82,75,65,28,92,111,24,68,85
0,16,17,110,79,17,66,113,111,23,69,95,79,35,116,69,95,107,72,30,27,101,16,10,83,96,79,67,78,31,72,83,88,90,20,69,12,113,10,11,60,86,78,12,31,95,108,18,12,88
0,105,74,75,75,75,74,104,77,43,77,79,74,117,79,78,82,110,79,38,39,88,103,120,75,86,67,71,69,9,48,71,76,82,66,70,70,79,71,70,108,89,103,65,114,98,121,105,73,83
1,40,31,29,29,40,73,29,29,37,86,88,18,54,41,76,13,105,89,46,108,20,29,105,89,93,82,74,86,104,78,77,89,12,77,13,80,29,12,34,69,84,17,34,104,93,106,41,12,22
0,77,80,75,76,78,53,76,76,81,84,85,79,46,80,86,88,8,87,47,81,68,76,81,82,92,74,53,76,9,69,77,59,88,56,61,87,76,63,66,87,69,76,67,9,78,101,77,84,67
0,105,106,103,105,106,73,105,78,71,76,78,75,40,106,78,80,110,80,40,24,87,104,121,76,85,67,71,103,38,61,70,75,81,72,78,76,82,74,74,108,89,104,67,39,98,121,105,76,82
0,74,74,73,74,74,54,74,73,69,79,84,75,40,75,81,83,8,82,41,43,89,72,66,77,87,68,54,71,9,47,72,77,83,60,64,83,74,66,66,82,64,72,66,9,73,95,73,68,70
0,19,78,111,112,114,67,115,113,24,73,93,85,36,118,70,93,107,83,36,37,99,108,69,85,97,82,68,79,31,73,83,91,93,68,74,73,117,71,70,11,86,78,70,34,95,115,19,73,88
0,18,13,106,73,19,65,113,81,16,69,90,84,26,19,68,88,106,74,27,30,97,72,11,82,94,77,66,73,29,70,76,85,90,13,68,71,113,67,66,53,85,73,12,25,94,110,19,69,82
0,74,76,76,76,76,55,77,74,74,79,80,74,10,81,81,83,8,82,45,11,90,72,73,77,87,69,56,71,10,63,73,78,83,59,66,63,76,66,67,54,65,72,66,9,74,97,73,65,70
0,94,95,90,92,96,65,99,89,55,68,103,95,13,100,101,105,106,102,14,14,114,91,114,99,105,93,65,91,14,89,93,102,101,63,68,67,92,65,95,40,85,92,85,10,94,115,92,67,80
0,89,91,93,93,91,92,93,96,88,95,98,92,54,95,96,100,18,99,55,59,106,88,86,93,101,87,90,87,22,80,88,95,102,99,103,98,100,92,91,45,54,88,82,54,14,58,63,95,102
0,106,107,105,106,107,73,106,105,71,76,113,105,61,108,78,81,30,112,67,71,87,104,72,106,86,105,71,102,11,102,71,112,82,72,78,79,107,73,73,60,89,103,67,38,98,121,105,75,115
0,110,112,109,111,112,89,112,111,46,90,94,86,14,114,91,94,107,94,116,16,102,108,103,87,95,84,89,81,9,78,83,93,92,61,97,91,111,69,103,91,86,82,71,7,95,105,110,71,98
0,85,86,111,112,114,92,114,112,84,93,97,89,16,116,94,97,107,96,16,18,106,109,105,89,98,87,92,84,14,81,85,95,94,64,100,95,115,104,105,93,86,85,72,9,95,106,82,72,103
0,66,75,103,105,112,84,113,105,110,89,97,85,19,115,89,98,106,99,114,112,106,102,109,85,96,85,83,74,104,73,86,91,92,47,81,57,113,58,108,11,85,75,59,108,94,114,29,109,97
1,75,75,74,74,76,55,76,75,11,58,60,54,15,78,86,90,89,60,15,15,68,72,9,82,91,52,55,76,11,47,78,58,87,46,60,55,75,68,68,86,68,77,66,8,77,99,78,69,68
0,79,81,73,73,82,53,81,71,79,84,86,79,44,84,86,88,9,65,45,79,95,77,77,82,92,74,53,76,10,69,78,62,88,90,63,88,76,61,64,88,69,77,71,9,78,101,77,64,69
1,35,38,28,32,36,54,35,29,34,64,10,21,100,38,64,8,102,31,101,103,29,32,68,35,9,32,54,34,100,36,36,9,8,73,68,71,32,63,68,90,81,36,31,99,90,31,36,66,32
0,75,77,71,71,75,82,72,71,74,85,86,71,48,77,86,89,9,88,80,70,95,72,66,112,93,75,55,76,9,69,77,84,89,85,61,88,72,63,64,53,51,77,65,61,59,68,77,66,68
0,110,68,110,72,113,75,114,107,18,75,86,76,16,116,78,85,107,78,17,20,92,107,16,77,89,74,75,68,24,65,73,83,86,59,62,65,112,60,60,47,86,69,61,15,95,109,13,71,85
0,72,73,111,73,72,80,114,113,68,83,92,84,18,74,83,93,107,85,19,23,99,72,65,84,96,77,79,73,24,70,80,91,92,63,69,76,116,66,66,53,86,74,65,12,95,115,70,68,89
1,71,72,104,73,73,64,75,106,38,68,88,103,32,75,65,77,106,72,33,35,95,74,114,81,90,75,65,73,30,52,74,77,87,65,70,69,81,67,67,21,85,67,66,33,94,115,39,69,78
0,88,88,85,85,88,100,85,79,94,102,108,99,19,88,103,108,107,106,12,16,116,85,115,101,108,95,99,93,16,88,96,106,104,69,110,104,85,71,76,103,86,94,78,7,95,116,88,73,110
1,78,78,72,78,78,54,78,71,79,84,90,79,48,78,86,88,9,65,50,79,95,74,66,82,92,74,54,76,10,69,77,58,88,59,66,60,72,64,66,87,69,77,66,9,78,100,78,66,70
0,74,71,70,70,74,77,70,70,74,80,85,76,14,74,81,85,8,67,13,9,90,71,66,78,87,70,53,71,9,46,73,85,83,60,66,64,71,63,65,83,65,72,66,8,74,96,72,65,70
0,72,73,74,74,73,72,104,76,43,76,77,73,38,77,77,80,107,79,39,43,86,71,72,74,85,66,69,68,109,50,69,74,81,68,70,74,81,73,72,107,89,103,65,38,98,120,104,75,82
0,78,80,75,78,82,56,78,75,80,84,86,79,46,82,85,88,9,87,48,9,94,76,68,82,92,74,57,75,9,69,77,88,88,62,65,88,78,65,67,55,69,77,69,8,78,101,78,66,71
0,90,90,92,92,91,92,92,95,86,94,97,92,52,96,96,100,17,97,60,58,106,88,86,93,101,87,90,87,18,79,89,95,98,98,101,97,99,90,88,73,54,87,82,10,11,87,87,92,103
1,87,91,86,86,102,60,87,86,103,68,71,86,108,91,68,72,102,72,109,108,77,86,96,67,72,64,62,18,101,41,56,70,69,58,15,64,86,13,96,96,81,41,79,104,90,109,41,13,80
0,111,14,111,111,114,70,114,113,23,73,94,90,34,117,75,95,107,79,24,26,101,108,18,87,97,79,70,75,29,72,83,93,93,15,69,70,114,69,68,8,86,76,12,27,95,109,15,70,87
0,72,73,68,69,73,50,71,69,76,55,83,64,44,74,82,85,7,60,45,76,91,69,61,79,88,71,50,72,8,65,74,53,84,54,60,55,72,61,61,84,65,73,62,8,74,97,72,63,64
0,73,73,72,72,73,52,75,72,8,56,87,76,8,79,83,87,8,61,8,8,66,72,65,79,88,72,55,73,8,45,75,87,85,47,63,56,73,65,64,84,66,74,65,6,75,97,73,68,67
0,74,74,74,74,75,54,74,74,69,79,80,74,41,74,81,83,8,82,42,45,89,73,64,76,87,69,54,71,9,47,72,78,84,52,64,61,74,65,65,54,89,72,65,39,98,67,74,67,69
1,77,79,73,76,78,53,76,73,78,84,59,79,44,79,85,87,9,64,45,78,69,73,66,82,92,73,53,75,10,69,76,58,88,90,61,59,73,64,65,87,68,76,67,9,77,100,77,67,68
0,111,63,101,102,114,66,114,101,112,68,78,96,11,113,69,77,107,72,12,112,86,102,110,65,81,63,66,60,17,59,67,71,78,56,61,63,108,58,109,44,86,60,103,8,95,110,109,60,75
0,75,75,107,108,75,77,108,107,70,80,115,107,54,80,82,85,44,83,69,69,121,105,70,108,88,106,75,72,8,65,74,114,85,70,86,80,108,71,70,57,66,73,68,65,50,72,74,113,114
0,108,108,107,108,108,75,107,107,74,110,114,106,73,109,79,114,30,114,73,74,120,106,75,108,87,107,110,104,35,62,70,113,83,117,118,115,108,77,75,62,41,105,67,68,49,75,106,110,118
0,106,72,104,104,109,79,108,105,15,81,90,97,27,110,80,90,105,85,112,111,99,103,110,78,89,74,80,72,105,69,78,86,85,60,64,63,108,64,65,50,85,72,64,107,94,112,17,67,93
0,77,78,76,76,78,82,78,76,73,84,86,78,13,78,85,86,8,64,13,97,94,76,95,80,88,77,82,75,10,73,75,85,84,53,59,59,77,94,94,84,66,76,69,93,75,96,77,96,69
0,109,65,109,69,112,64,113,107,20,68,83,80,22,116,66,82,106,73,23,25,89,106,60,73,87,70,63,69,21,65,70,81,88,61,62,65,112,61,61,48,85,69,61,19,94,110,14,64,81
0,72,72,69,70,72,52,72,71,74,84,89,79,8,72,85,89,8,66,8,8,94,69,65,81,91,72,53,75,10,68,77,88,87,60,64,67,71,64,64,86,68,76,65,7,77,99,78,66,69
0,82,83,59,60,83,39,72,59,102,44,56,60,114,88,41,45,107,48,115,113,53,71,100,40,45,59,38,56,105,27,32,43,42,32,47,41,60,51,51,9,86,29,75,109,96,100,83,66,53
1,32,33,28,29,42,85,31,19,41,88,92,94,50,33,89,93,104,92,51,109,103,28,107,88,95,86,85,86,103,81,85,90,91,79,15,83,107,14,104,69,83,85,25,105,92,109,43,14,101
0,25,20,107,76,113,60,114,109,28,69,96,86,37,116,63,97,107,80,31,33,104,76,23,87,97,85,62,75,107,75,86,93,93,20,67,69,114,67,68,13,86,76,17,30,95,110,30,71,91
0,75,75,76,75,76,75,105,78,71,79,84,75,37,78,80,84,110,81,38,42,90,73,121,77,87,70,73,71,9,48,73,84,84,73,85,81,83,69,69,108,89,104,67,36,98,121,106,71,87
0,30,29,15,15,30,69,110,85,36,76,94,88,42,32,70,79,105,79,43,44,102,29,23,88,94,85,69,83,104,14,82,89,90,36,75,16,111,23,23,9,84,15,23,40,93,107,32,23,82
0,21,22,108,109,111,69,111,110,28,73,92,90,39,114,72,75,105,77,40,38,100,105,13,89,94,83,69,80,35,79,80,90,89,70,75,20,111,72,14,11,84,80,15,37,93,113,29,74,85
0,75,78,72,75,76,80,75,73,73,82,87,76,42,78,83,86,8,64,43,45,92,73,65,79,89,76,54,73,9,72,75,86,85,87,63,85,73,64,65,84,66,74,66,8,75,97,75,67,68
1,72,68,108,79,68,63,112,110,22,65,94,80,35,114,64,95,104,68,18,21,91,75,61,80,95,76,63,72,29,69,82,84,90,64,66,67,114,65,74,50,83,73,65,30,92,112,24,64,76
1,106,107,105,107,109,64,108,105,39,67,89,85,111,109,66,90,104,74,112,110,99,103,111,85,89,81,64,80,108,47,78,89,85,63,69,28,108,16,16,12,83,50,17,106,92,112,38,19,84
1,45,46,27,29,46,97,29,28,48,35,31,28,106,47,34,10,98,34,108,110,37,28,108,28,10,26,32,27,103,27,26,31,9,54,37,34,30,37,38,96,36,28,37,105,44,109,46,39,36
0,107,76,72,74,76,85,106,73,78,86,89,82,44,76,88,89,8,89,45,100,96,73,98,109,91,81,85,77,9,75,77,89,88,60,64,87,105,97,97,86,68,104,66,96,77,99,106,99,68
1,108,109,108,108,111,63,109,109,36,69,92,103,34,112,65,76,105,73,35,35,99,105,113,86,92,81,63,68,109,53,68,75,76,64,70,68,110,68,67,15,84,54,23,15,93,114,41,70,79
0,74,75,75,75,75,75,76,75,70,79,79,75,10,76,80,83,107,81,42,44,89,73,67,76,87,69,73,71,38,43,73,77,83,79,85,80,76,68,67,56,89,72,67,35,98,96,43,70,86
1,75,76,73,75,75,81,75,75,79,83,85,78,48,76,85,87,10,71,49,80,94,73,67,82,92,74,56,75,10,68,76,82,88,64,69,67,75,68,67,54,69,76,67,10,57,101,76,70,72
0,75,80,75,75,75,84,105,73,76,85,88,80,9,80,86,88,8,88,40,99,95,75,97,109,90,80,84,76,9,74,75,88,87,59,63,88,104,96,96,85,68,104,67,8,76,98,106,98,71
0,110,69,106,68,113,46,113,106,112,51,92,80,27,114,51,91,107,55,115,113,100,107,114,83,94,80,45,69,109,67,79,91,90,45,51,49,110,60,60,17,86,70,60,23,95,114,109,75,94
1,78,79,72,73,78,53,73,73,81,85,86,71,10,79,87,89,10,66,45,81,96,73,64,83,93,74,53,77,10,69,77,58,89,54,63,59,73,65,64,89,49,78,65,10,78,102,78,65,68
1,26,26,107,107,110,70,110,108,33,75,87,94,48,113,75,81,104,79,41,41,93,104,15,80,89,80,70,75,108,57,76,85,86,71,76,18,109,76,18,12,83,60,17,39,92,111,26,21,85
1,106,108,106,107,109,64,109,108,37,72,80,83,49,112,67,74,103,75,38,40,89,104,37,81,85,81,65,80,107,52,64,75,75,18,74,24,108,75,25,13,82,56,20,35,92,104,105,74,78
0,75,76,75,76,77,53,78,78,74,79,85,75,42,79,81,84,8,82,43,43,90,73,66,78,87,70,54,71,8,47,73,84,83,59,65,82,78,62,66,83,65,73,66,39,74,96,73,64,69
0,75,76,72,75,76,54,75,73,75,80,85,76,42,79,82,85,8,83,43,44,91,72,65,78,88,71,54,72,9,66,74,85,84,57,63,84,75,64,66,83,65,73,66,9,74,97,106,66,68
1,27,28,105,105,27,68,108,106,23,74,85,86,44,111,70,78,102,77,45,42,92,101,19,83,90,83,67,73,39,54,71,79,82,72,77,17,109,19,19,12,81,60,19,38,90,109,27,22,82
0,75,77,67,47,75,82,13,67,15,54,87,47,18,76,83,87,86,63,19,20,93,72,95,79,88,47,82,73,93,72,75,85,84,87,41,50,67,38,40,84,65,75,65,93,74,97,75,40,67
0,27,30,25,28,28,96,28,26,41,35,12,25,57,30,98,10,97,39,39,109,15,26,107,27,11,24,95,26,56,26,88,10,9,41,39,41,26,107,107,95,14,26,38,105,24,108,28,108,42
0,76,77,74,76,79,55,77,74,77,81,82,76,9,83,83,86,9,70,9,10,92,74,68,79,89,71,55,73,10,50,75,58,85,59,66,60,76,65,68,85,66,74,68,8,75,98,75,67,70
0,76,77,70,70,77,50,77,70,75,80,86,76,40,80,83,86,7,62,41,74,92,71,95,79,88,77,50,72,8,71,74,85,84,55,58,56,70,62,61,84,65,74,63,93,74,96,75,64,66
0,75,77,75,75,75,81,76,75,80,84,85,79,46,77,85,88,9,72,47,80,94,75,67,82,92,74,57,75,10,69,76,83,88,90,67,68,76,68,67,54,69,76,68,9,58,101,77,70,72
0,73,76,72,72,74,55,107,72,74,80,84,76,47,79,82,84,8,84,48,65,91,72,65,78,89,71,55,72,9,65,73,79,85,59,65,83,72,64,65,53,67,106,66,63,76,66,107,66,71
0,74,74,105,107,75,77,107,106,69,80,114,105,54,109,81,85,37,82,60,68,119,104,69,107,118,105,76,72,9,67,74,113,113,67,72,73,107,71,70,56,65,73,67,42,49,72,73,73,115
0,76,79,76,76,76,85,106,76,74,86,89,81,38,79,87,89,9,89,39,100,96,76,98,82,91,80,85,77,9,75,77,89,88,89,66,90,104,97,97,86,68,104,67,96,77,99,107,99,70
0,71,74,71,71,74,53,10,10,69,58,86,77,37,13,83,86,86,65,15,15,65,70,66,79,88,77,53,73,92,45,74,85,84,60,62,65,11,66,66,83,65,74,64,92,74,96,74,65,69
0,73,75,103,74,74,77,104,103,69,77,114,104,66,75,79,83,26,114,67,68,122,103,67,75,86,105,109,103,12,102,73,114,83,65,70,114,128,67,67,55,63,104,66,47,44,68,73,69,117
0,107,38,92,92,107,68,108,92,49,75,92,89,112,111,74,78,105,88,113,112,92,100,113,88,82,83,68,84,104,51,82,80,78,65,15,74,100,15,99,100,84,52,43,107,94,113,51,16,92
0,34,35,91,91,34,60,111,91,39,67,93,90,12,34,61,67,105,97,113,39,110,105,112,89,92,78,60,92,104,44,91,86,88,61,67,68,92,111,111,12,84,52,27,107,93,113,44,113,102
0,77,78,73,78,78,55,78,72,76,81,84,77,42,81,83,85,8,67,44,45,91,74,121,79,89,71,55,73,9,48,74,61,85,60,65,84,73,64,68,84,89,74,67,8,98,98,107,66,72
1,33,32,25,29,33,70,32,18,40,78,85,17,45,35,74,78,101,81,45,105,91,28,101,85,85,81,72,18,100,17,79,81,81,75,78,35,104,78,99,65,80,19,24,101,89,103,35,80,85
0,103,104,101,103,104,59,103,102,48,73,81,73,117,104,77,81,110,77,118,120,86,101,118,74,84,65,59,101,109,50,69,73,80,59,70,67,103,68,70,107,89,102,44,114,98,120,103,70,81
0,77,79,78,79,79,53,79,79,49,60,87,77,40,82,84,86,9,84,41,44,92,75,70,80,89,72,53,74,9,47,75,86,85,59,65,59,81,64,70,85,67,75,67,9,98,98,76,65,68
0,78,80,69,71,78,47,78,69,79,84,88,69,38,80,85,88,7,57,41,80,62,70,76,81,91,72,47,75,8,68,77,52,87,51,55,87,72,54,76,86,67,76,72,8,76,99,78,57,62
0,110,111,108,111,111,85,110,110,79,85,90,108,48,113,115,90,9,88,49,76,97,107,67,110,93,82,85,77,10,75,79,90,89,119,67,88,111,67,68,56,69,106,70,9,78,101,108,68,77
0,74,77,71,72,74,84,106,71,75,84,88,80,39,77,85,88,8,87,43,8,94,71,97,81,90,79,83,75,8,73,76,88,87,59,64,87,71,63,65,85,67,105,65,8,76,98,106,65,70
0,19,21,106,77,21,66,113,108,27,68,94,84,37,21,68,85,106,78,29,28,99,76,110,79,95,77,67,73,30,69,81,85,91,67,70,70,114,71,71,12,85,74,14,27,94,112,22,74,86
1,101,43,94,94,105,57,106,94,105,61,79,78,108,108,55,80,104,79,109,109,86,97,107,78,82,70,60,68,103,42,68,79,79,21,65,44,94,35,104,12,83,43,34,104,92,109,100,48,89
0,75,75,71,74,75,54,75,72,75,80,81,75,39,75,82,84,110,83,41,43,91,71,65,78,88,70,54,71,10,64,73,78,84,60,66,83,75,65,66,52,89,73,66,9,98,97,73,66,71
0,77,79,76,79,79,55,80,80,47,58,86,77,9,82,83,85,9,84,9,10,91,75,71,79,88,70,55,73,11,48,74,60,84,58,64,84,80,68,67,84,89,74,68,9,98,97,76,69,70
0,111,68,106,106,114,71,114,107,112,71,90,96,32,114,74,85,107,78,23,112,98,103,110,77,90,75,72,72,25,66,77,84,85,62,65,66,114,65,66,50,86,71,63,9,95,111,109,67,86
0,76,77,76,77,77,56,77,77,74,81,86,77,46,80,82,85,8,84,47,50,91,73,68,78,88,70,55,72,9,64,73,78,84,61,67,83,76,65,68,83,66,106,67,43,74,97,106,67,71
0,75,76,77,77,78,55,79,79,44,79,80,75,39,82,81,84,108,82,40,44,90,73,74,78,88,70,56,71,9,48,72,78,84,60,65,64,81,64,74,30,88,72,67,39,97,75,107,66,72
1,106,27,102,106,108,67,107,105,45,70,83,86,47,109,70,82,103,81,111,47,90,103,15,79,88,79,67,80,108,52,71,82,83,70,76,71,107,15,15,11,82,54,16,43,91,111,38,15,84
1,22,27,100,19,27,74,22,94,33,78,96,94,52,27,77,97,104,86,45,109,103,18,107,92,96,86,74,84,104,81,85,89,91,74,15,78,111,14,106,96,83,84,16,105,92,109,27,16,95
0,47,49,47,48,47,72,103,48,69,74,77,47,117,50,76,81,107,45,118,120,86,47,40,74,84,65,71,66,109,59,69,75,81,67,42,54,48,40,40,28,87,67,41,114,96,41,104,42,44
0,78,79,75,78,79,47,79,75,10,50,86,78,12,80,84,87,87,53,13,12,67,75,95,81,88,77,47,75,94,73,75,85,84,46,50,50,78,95,95,84,66,76,70,94,75,97,77,48,61
0,106,74,76,75,76,75,105,77,72,77,79,75,47,78,79,81,110,80,48,44,88,104,120,76,86,69,67,70,11,50,72,77,82,68,70,73,78,69,69,108,89,104,66,41,98,121,105,71,78
1,33,34,19,20,40,77,106,20,44,81,90,19,57,109,80,90,104,90,53,109,99,31,106,87,92,85,77,21,103,18,82,90,85,78,15,39,108,14,14,68,83,18,26,104,92,108,41,14,94
0,18,72,80,78,18,63,113,80,20,70,90,81,26,116,64,91,106,74,27,29,95,77,13,81,96,79,64,76,28,69,82,88,93,65,69,69,115,70,70,12,85,77,67,23,94,112,18,73,85
0,105,106,77,77,77,111,104,78,73,78,84,75,44,79,80,83,110,81,45,44,89,104,121,77,86,69,111,104,10,101,73,83,82,64,69,66,79,71,70,59,89,104,66,38,98,96,105,73,74
0,44,31,29,30,43,33,30,29,39,35,31,28,107,31,32,7,99,35,109,111,35,29,38,29,8,29,32,29,104,28,29,32,7,35,38,35,31,36,37,98,34,29,36,107,43,111,44,38,40
1,25,22,107,108,111,68,111,109,33,74,91,85,41,113,71,80,105,80,41,42,97,105,14,84,92,83,68,79,108,55,80,81,87,29,76,17,111,76,19,12,84,21,16,35,93,112,26,16,83
0,76,78,72,74,78,52,78,72,76,81,84,76,43,81,83,85,9,84,46,76,91,73,66,79,89,70,53,72,9,65,74,81,85,54,60,59,72,64,63,40,67,73,66,9,76,98,74,66,68
0,69,68,66,66,70,46,10,10,68,51,54,52,40,73,85,88,86,55,75,14,10,66,95,81,88,50,48,74,93,73,76,52,84,45,59,54,10,60,61,84,65,75,59,93,74,97,73,61,63
0,73,76,70,70,73,79,76,70,73,82,85,77,42,76,84,87,8,65,44,73,93,70,64,80,90,72,52,73,8,67,76,87,86,86,63,85,70,62,64,86,67,75,64,39,76,99,75,64,67
0,112,113,111,112,75,82,112,111,69,85,87,110,46,113,116,89,10,87,47,69,95,109,64,112,93,75,79,76,10,69,78,85,89,121,65,86,112,65,66,53,50,77,67,42,55,102,110,67,91
0,75,78,78,78,78,59,78,78,53,62,80,77,48,81,62,84,10,64,49,48,89,74,70,78,88,69,58,70,10,52,73,63,84,60,66,64,79,71,70,57,89,105,67,9,98,96,106,124,69
0,107,108,105,106,107,111,106,105,67,80,114,106,61,108,82,85,8,83,62,66,91,105,63,107,88,105,110,72,8,65,73,113,84,86,88,83,107,64,65,52,44,104,66,61,50,96,106,65,88
1,78,78,74,76,78,89,78,74,82,89,93,73,46,78,91,93,9,64,85,104,69,74,101,111,95,84,89,80,10,78,81,92,91,94,61,93,78,100,101,90,70,81,67,99,79,103,109,63,69
0,75,76,73,75,75,53,76,68,46,79,83,75,12,78,81,85,108,66,13,45,90,73,43,77,87,50,52,71,11,46,73,83,83,85,65,82,73,43,43,83,89,72,66,41,98,97,73,45,69
0,77,78,73,78,78,53,78,73,76,82,87,77,38,80,83,86,8,84,42,41,92,74,66,80,89,72,53,73,8,46,75,86,85,56,62,58,77,65,66,85,67,75,67,8,76,98,75,66,69
0,105,73,76,76,74,73,104,78,71,75,78,74,39,106,78,82,7,78,43,43,87,103,121,75,85,105,71,103,12,102,71,75,81,73,83,78,81,122,121,108,89,103,67,39,98,121,104,123,83
0,106,107,105,107,109,58,107,106,70,69,83,105,53,110,112,82,37,73,54,54,88,104,66,107,86,105,68,102,9,59,71,113,82,64,70,67,108,67,68,55,89,103,66,45,98,69,105,69,81
0,74,74,74,74,76,57,78,78,42,77,79,74,37,78,79,82,110,80,38,40,88,72,69,76,86,68,57,70,9,47,71,76,83,63,69,81,78,69,69,27,89,71,66,9,98,73,106,69,74
0,107,110,104,107,108,85,106,104,75,85,89,80,39,108,87,89,9,88,40,42,96,106,97,108,91,80,85,77,10,75,77,88,87,65,67,88,106,97,97,86,68,104,69,38,77,99,106,69,92
0,72,72,70,72,73,50,72,71,9,55,57,53,8,75,82,86,6,60,8,8,66,72,94,78,87,49,50,72,8,72,74,55,83,54,57,53,72,63,65,83,64,74,63,6,73,96,74,66,65
0,71,72,69,70,73,51,71,70,76,56,88,68,8,73,84,88,8,60,8,77,65,69,61,81,90,72,50,74,8,68,76,87,86,89,59,57,71,62,62,86,66,75,62,7,75,99,72,65,64
0,106,107,104,105,107,111,105,105,71,79,84,106,46,107,113,84,9,81,47,46,90,104,69,108,87,106,111,104,9,102,73,115,83,118,73,80,106,68,69,56,89,104,67,40,50,96,105,71,85
0,74,78,70,70,73,51,73,69,73,56,87,77,9,73,83,87,7,65,9,13,92,73,66,79,89,71,53,73,9,66,75,86,85,52,64,60,70,65,65,84,66,74,64,8,75,97,75,64,69
0,76,77,77,77,78,56,78,77,76,81,86,77,45,81,83,86,8,83,46,46,92,74,69,79,88,73,56,73,9,72,75,85,85,60,65,84,77,66,69,85,67,106,68,8,75,98,107,68,71
0,74,75,75,75,76,58,78,78,73,77,81,74,43,80,80,83,9,80,44,45,128,71,71,77,86,70,58,70,9,49,72,82,83,60,66,65,78,65,71,58,65,71,66,8,74,96,105,66,72
0,81,82,73,80,82,53,81,76,81,85,86,80,43,82,87,88,8,88,47,81,95,78,80,83,93,75,53,76,9,69,77,59,89,56,61,89,76,62,63,50,69,78,73,43,78,101,79,64,69
1,74,74,72,72,78,53,73,72,78,85,85,71,45,82,87,88,9,68,46,77,95,72,63,83,93,74,53,76,10,69,77,60,89,91,63,88,72,64,64,52,48,78,65,9,57,102,78,66,69
0,74,75,76,75,76,112,105,79,72,78,84,75,40,79,80,84,8,81,41,42,89,104,69,77,87,69,112,71,9,103,72,77,83,68,71,70,79,70,71,59,89,105,67,39,47,96,106,71,74
0,76,77,77,77,78,58,79,77,75,80,82,77,120,82,82,84,8,83,121,42,91,73,121,78,88,71,57,72,9,48,74,81,84,62,66,63,79,121,121,57,89,105,68,39,98,98,107,123,72
0,76,76,73,74,76,54,76,74,76,81,86,76,44,83,83,86,9,69,46,75,91,73,67,79,88,74,54,73,9,71,75,85,84,86,66,62,74,65,67,84,66,74,67,9,74,97,74,67,72
0,75,76,76,76,76,56,76,76,73,79,84,76,42,80,81,84,8,82,45,73,90,72,69,78,87,69,55,71,9,64,73,84,84,58,63,61,76,62,69,48,65,105,66,8,74,96,106,71,70
0,76,77,73,76,77,53,77,73,72,82,87,77,39,77,84,87,8,64,43,43,92,73,67,80,90,72,53,74,8,46,75,86,86,57,63,59,76,64,68,85,67,75,66,8,75,98,76,65,68
0,46,47,20,25,48,27,47,25,42,29,31,25,70,50,29,86,86,32,71,72,10,46,94,25,88,21,27,19,92,17,20,29,84,55,36,32,46,38,38,82,39,20,38,92,48,95,47,41,19
0,73,75,76,75,74,73,104,76,45,75,77,74,119,77,78,81,110,78,120,43,87,72,120,75,86,67,70,69,10,50,71,75,81,68,70,73,82,70,70,108,89,104,67,37,98,121,105,71,82
0,74,50,70,70,75,52,76,70,74,53,57,51,97,78,53,56,90,55,98,100,69,69,98,51,59,50,52,50,96,46,50,55,56,45,47,56,15,44,46,87,69,80,64,96,78,100,77,46,65
0,73,75,75,76,75,58,77,78,42,77,82,73,37,78,79,83,110,80,38,41,88,72,69,76,86,68,56,70,9,47,71,77,83,61,68,67,78,69,69,28,89,71,66,11,98,96,105,72,72
0,76,78,76,78,78,56,106,76,75,81,86,77,42,82,83,87,9,84,43,45,92,74,67,79,89,76,55,73,9,72,75,85,85,60,64,84,78,65,67,54,67,106,68,41,75,98,107,66,72
0,106,107,75,75,106,109,105,78,73,77,79,73,42,107,112,82,110,80,121,45,88,104,120,107,86,105,60,70,10,50,71,77,82,63,67,67,81,121,120,108,89,104,66,40,98,121,105,123,76
0,75,77,74,74,77,56,78,73,76,81,87,77,42,78,83,87,8,70,45,45,92,73,66,79,88,72,56,73,9,72,75,86,85,86,67,84,74,65,66,84,66,105,67,40,75,97,106,67,71
0,73,73,73,73,75,76,105,73,73,79,84,75,44,80,81,84,10,82,45,74,90,71,65,77,87,70,112,71,10,64,73,78,83,61,65,71,73,65,65,52,65,105,66,10,73,96,106,68,73
0,78,78,69,69,78,52,69,69,76,82,83,78,120,80,84,86,9,85,45,42,92,69,61,80,90,71,52,73,9,67,75,81,87,58,64,86,69,61,61,49,89,75,65,11,98,99,76,63,69
0,74,76,73,74,75,77,73,73,73,79,85,75,9,76,81,85,8,66,39,43,91,73,65,78,87,70,54,71,9,45,73,85,84,60,65,64,73,65,65,83,89,73,66,9,98,96,73,68,70
0,75,77,74,75,75,79,76,75,73,81,87,76,44,78,83,87,9,65,46,72,92,74,67,79,89,74,54,73,10,71,75,86,85,86,64,66,75,67,66,84,66,74,67,94,75,98,74,69,69
0,108,109,106,108,109,78,108,107,68,80,116,107,49,109,82,116,38,115,53,66,122,106,65,109,89,106,76,105,10,66,75,85,85,67,78,76,108,78,77,53,45,106,67,46,53,98,72,80,118
0,107,108,106,107,108,77,107,106,70,79,115,106,53,109,81,116,35,114,66,70,121,105,71,108,88,106,75,104,9,65,107,114,85,71,87,82,108,72,71,56,66,105,67,64,48,97,106,75,118
0,74,75,75,75,75,57,77,77,72,78,79,75,42,78,80,83,10,80,43,45,89,71,69,76,86,68,57,70,10,63,72,76,82,62,66,65,77,68,69,57,89,104,65,39,98,95,105,69,71
0,105,75,75,75,75,112,105,76,71,77,79,74,45,106,79,82,9,80,46,108,88,104,67,76,86,105,110,69,10,103,71,77,82,65,67,80,76,67,68,56,64,104,66,43,50,69,105,69,84
0,78,78,72,76,79,41,78,74,9,44,54,77,8,81,84,87,87,49,8,10,61,74,96,80,89,78,41,74,8,73,76,51,85,88,46,44,76,46,44,84,66,75,70,94,75,97,76,45,54
0,75,76,71,76,75,54,76,71,74,79,84,75,43,76,81,84,8,68,44,74,90,72,67,77,87,71,54,71,9,65,73,84,83,85,64,64,71,63,67,83,65,72,66,8,73,96,73,65,70
0,78,64,79,79,79,63,82,81,77,66,78,77,41,82,81,85,108,84,41,44,89,71,75,78,88,69,62,71,9,50,72,66,85,64,75,70,82,75,75,62,88,72,70,38,97,75,107,76,78
0,74,74,74,74,75,76,74,73,71,79,81,74,9,80,80,84,8,81,45,42,89,73,69,77,87,69,56,70,9,47,73,79,83,64,66,69,74,66,69,56,65,72,66,8,74,96,72,68,74
0,75,77,73,74,77,53,74,71,75,81,86,76,42,78,82,86,8,66,43,75,91,73,65,78,88,70,53,72,9,64,74,85,84,57,63,84,74,65,65,83,65,73,66,9,74,97,74,65,70
0,75,76,71,76,76,54,76,74,72,81,81,76,43,76,82,85,8,63,45,74,91,73,66,78,88,70,53,72,9,65,74,79,84,57,62,84,76,64,67,84,66,73,66,9,75,97,74,69,67
0,31,32,29,30,31,95,30,29,46,39,9,29,104,32,98,99,95,33,105,108,28,29,105,30,8,29,93,29,102,29,30,35,7,48,108,35,30,105,44,94,19,30,36,103,28,107,31,106,31
1,106,106,105,106,107,72,106,105,72,109,107,105,59,107,77,79,44,110,64,66,118,104,73,105,85,104,70,67,31,60,69,74,81,79,82,109,106,109,109,108,89,103,64,53,98,121,105,109,116
0,104,73,75,75,75,73,104,77,43,76,77,73,117,78,77,80,110,78,119,119,87,103,118,75,85,66,71,68,9,49,69,75,81,68,74,72,81,72,72,107,89,103,65,114,98,120,104,75,82
0,74,74,77,77,76,74,106,78,74,77,78,75,43,81,80,82,108,81,45,45,88,73,73,76,87,68,72,70,11,52,71,76,83,68,74,73,82,74,73,108,89,104,67,39,98,121,106,76,85
0,76,78,76,78,78,56,106,76,75,81,86,76,43,81,83,87,9,84,45,75,92,74,67,79,89,76,56,73,9,72,75,86,85,61,66,84,76,66,67,84,66,106,68,9,75,98,107,67,72
0,73,73,71,71,73,52,73,71,77,82,87,71,40,73,84,87,8,86,43,78,93,71,63,80,90,72,52,74,8,67,75,87,86,56,62,60,73,64,64,86,67,74,64,8,76,99,73,65,66
0,74,75,75,75,75,58,77,78,73,78,81,74,43,79,80,83,9,81,44,46,89,72,69,77,86,69,57,70,9,63,72,77,83,63,65,66,78,67,68,55,89,104,66,40,98,96,105,69,71
0,73,77,73,73,74,79,73,73,74,81,86,76,43,78,82,86,9,83,48,72,91,73,65,79,88,73,52,72,9,67,74,85,84,57,64,83,73,61,64,84,66,106,65,9,75,97,107,63,69
0,108,108,106,107,109,111,107,106,68,80,86,106,45,109,113,86,9,83,51,46,91,105,67,108,89,107,111,72,9,65,74,115,85,113,67,67,108,66,67,53,66,105,67,41,51,98,106,67,86
0,76,79,76,78,76,79,78,78,75,83,87,78,9,79,84,86,9,67,46,75,93,76,68,80,90,72,57,74,9,67,76,87,86,61,66,69,78,68,70,85,67,75,68,9,76,99,76,70,72
0,73,78,72,72,73,55,74,72,73,81,86,77,42,78,82,86,9,67,43,9,91,73,66,78,88,70,54,72,9,65,74,86,84,86,65,66,72,65,66,84,65,74,66,9,74,97,73,66,68
0,72,72,70,70,78,77,70,70,76,80,85,77,43,73,82,85,8,83,47,76,91,70,64,79,88,70,53,72,9,65,74,85,85,59,64,83,72,64,64,51,66,105,64,42,75,97,106,65,68
0,74,75,76,75,76,76,105,76,71,78,84,75,41,78,80,83,8,81,42,44,90,73,67,77,87,70,112,71,9,102,73,83,83,65,70,76,76,67,67,55,89,105,67,39,98,96,105,69,76
0,78,79,78,79,80,54,81,79,52,58,63,77,120,84,57,85,9,84,121,49,91,75,121,79,89,70,54,73,10,51,75,61,85,59,62,59,81,64,68,56,89,106,68,9,98,98,107,63,87
0,75,77,70,77,76,79,77,70,73,81,86,77,42,77,82,86,9,66,43,73,91,72,66,78,88,77,53,72,9,65,74,85,84,86,64,65,70,63,68,84,65,105,66,8,74,97,74,65,70
0,73,74,74,74,75,58,77,78,46,77,79,74,118,78,79,82,110,80,43,45,88,71,69,76,86,68,59,70,10,49,71,76,82,63,69,69,78,70,69,108,89,104,66,40,98,121,105,69,74
0,72,72,76,76,74,73,76,77,10,76,78,74,9,78,78,81,8,78,10,9,87,72,70,76,85,67,71,68,11,49,70,76,81,67,73,78,78,70,70,58,89,70,66,8,98,95,49,71,83
0,75,76,73,73,75,54,76,73,75,81,86,76,46,76,82,86,8,68,47,75,91,73,66,78,88,70,55,72,9,65,74,86,84,59,64,83,73,65,66,84,66,73,66,9,75,97,74,67,69
0,77,77,77,77,79,57,81,79,51,80,81,77,46,83,82,84,9,83,47,48,90,74,121,79,89,69,57,72,9,53,73,65,85,61,64,63,79,122,69,56,46,73,68,43,53,78,108,124,73
1,77,78,76,78,80,56,109,76,78,82,84,78,48,80,84,87,10,85,49,51,93,75,67,81,91,74,56,74,10,68,76,83,87,59,66,62,77,67,67,54,68,108,67,45,77,100,109,66,71
0,53,53,22,51,66,28,51,24,67,29,30,23,93,69,29,32,86,30,94,69,37,50,64,24,33,22,28,21,92,21,23,30,5,70,63,62,26,63,63,83,64,20,56,91,73,66,66,63,32
0,76,77,74,75,79,80,75,74,76,80,86,75,9,81,83,86,8,68,46,9,92,74,67,79,88,75,56,73,9,71,74,85,84,61,66,67,75,66,67,84,66,74,68,8,74,97,74,68,72
0,75,78,73,78,78,56,78,78,73,61,85,77,37,78,82,85,9,64,38,40,91,73,69,78,88,72,58,72,9,46,75,85,84,64,69,64,78,70,69,84,66,73,68,9,75,97,73,72,72
0,73,75,71,75,75,77,73,73,72,79,82,74,8,77,81,84,8,64,41,9,90,72,68,77,87,70,54,71,8,64,73,84,83,58,64,62,73,64,64,83,65,72,66,8,74,96,73,66,68
1,79,80,80,80,80,60,81,81,76,83,84,79,50,81,85,87,10,86,51,76,93,77,71,81,91,73,60,75,10,68,76,82,87,64,68,71,81,72,72,58,68,76,71,10,77,100,109,75,74
0,77,79,72,77,77,88,79,71,76,62,92,68,9,79,90,92,9,65,9,103,99,77,101,86,94,83,88,80,9,78,80,92,91,59,64,62,71,100,100,89,70,80,69,98,79,102,79,102,71
0,73,79,68,72,74,51,74,68,75,82,87,78,8,79,84,87,7,64,8,8,65,71,70,80,90,72,50,73,8,67,75,86,86,56,61,56,72,60,60,85,66,74,63,7,75,98,74,62,65
0,49,53,75,75,49,74,77,77,46,77,83,75,10,78,79,82,110,80,14,44,88,49,45,76,85,67,60,69,9,49,71,76,82,64,70,69,78,70,71,32,89,69,44,10,98,95,49,73,83
0,75,76,76,76,77,55,79,77,45,79,84,75,39,79,81,84,7,82,42,43,90,72,71,78,86,75,55,71,8,47,72,83,82,58,64,62,77,64,70,82,65,72,66,7,74,95,73,66,71
0,76,77,74,77,77,50,77,74,75,81,86,76,9,80,83,86,8,83,43,9,91,74,46,79,88,71,50,73,9,65,74,85,84,51,60,54,74,60,62,84,66,74,66,8,75,97,74,62,65
0,105,78,78,78,105,58,104,80,50,64,85,78,42,82,83,85,9,83,45,47,92,104,120,79,87,78,58,73,9,101,73,85,84,62,68,66,82,121,120,108,89,103,69,8,98,96,105,123,72
0,107,108,106,107,108,76,107,106,71,80,85,106,55,108,112,85,38,83,56,63,91,105,73,107,88,106,73,103,8,64,74,84,84,68,116,114,107,73,73,59,66,104,68,42,48,97,106,76,86
0,74,75,75,75,75,76,75,78,73,79,82,75,40,79,80,83,7,65,41,72,128,70,68,77,87,69,55,70,10,63,72,81,83,84,66,67,70,62,66,56,89,71,66,8,98,96,70,64,70
0,110,112,79,82,110,62,110,84,80,85,90,81,46,113,87,90,9,88,51,50,96,108,71,111,92,81,61,77,10,76,78,89,89,65,69,88,84,69,70,59,70,78,71,9,79,101,109,68,75
0,73,75,70,70,73,76,71,71,73,79,84,75,39,78,81,84,110,66,41,72,90,71,67,77,87,69,53,71,10,64,73,84,83,84,63,66,71,63,66,82,89,72,65,9,98,96,71,65,68
0,75,76,72,74,76,53,76,72,76,80,82,75,44,82,82,85,8,83,45,75,90,72,63,79,88,71,52,72,9,65,74,81,85,56,62,61,74,62,63,50,66,106,67,9,75,98,107,64,69
0,107,109,105,107,108,112,107,106,73,81,86,76,45,109,114,86,10,83,47,49,92,105,69,109,89,107,113,104,10,103,75,86,85,63,67,83,107,67,69,56,67,105,68,43,76,98,107,69,75
0,77,77,73,76,77,83,77,73,78,84,87,77,41,77,85,87,8,86,42,99,95,73,96,81,89,77,83,75,8,73,75,87,85,57,62,86,73,95,95,85,67,105,66,94,76,97,106,61,66
0,75,77,72,72,77,52,73,72,14,55,58,71,95,78,87,60,88,64,96,98,69,72,96,83,59,48,53,77,95,74,77,56,55,58,63,58,73,96,96,85,67,78,65,95,76,98,77,98,68
0,74,77,74,77,77,112,106,74,73,80,83,77,41,78,81,84,9,82,45,71,90,73,66,78,88,70,75,72,10,64,74,78,85,62,65,82,74,65,65,53,66,106,66,40,75,97,107,68,69
0,75,76,75,75,76,78,82,75,78,79,87,75,119,83,83,87,110,44,49,48,92,75,44,80,88,75,82,74,93,69,75,86,84,86,79,85,75,40,39,85,89,74,68,42,98,97,75,41,77
0,75,78,72,74,75,83,104,72,41,83,87,78,35,78,85,87,110,86,39,41,95,74,96,81,88,78,83,75,10,72,75,86,85,61,65,86,103,64,96,84,89,104,66,94,98,97,105,66,71
0,73,75,73,73,75,54,76,73,70,79,79,73,43,76,80,82,9,81,44,46,88,72,121,76,87,68,56,70,10,63,71,77,83,58,64,82,75,65,66,53,89,71,65,41,98,121,106,66,72
0,74,75,75,75,76,57,76,74,13,78,78,74,38,80,80,83,108,81,39,24,88,74,69,76,86,51,57,70,14,47,73,59,82,44,70,82,74,68,69,56,89,72,67,9,98,95,17,69,73
0,69,73,68,69,71,84,106,69,67,85,88,71,9,73,86,88,8,88,9,99,95,69,97,108,90,79,84,75,9,73,76,88,86,57,63,60,71,96,62,85,67,104,63,95,76,98,106,63,65
0,76,77,73,77,77,52,77,73,50,81,84,76,120,79,82,85,8,83,121,46,91,73,121,79,88,71,52,72,9,65,74,57,84,56,61,57,77,64,65,84,89,73,67,8,98,97,107,66,68
0,74,74,74,74,74,75,105,79,69,79,83,74,43,79,80,84,9,82,44,46,89,73,69,77,87,69,73,71,9,63,73,77,83,64,69,81,79,66,70,57,65,105,66,41,47,96,106,68,85
0,73,72,72,72,73,85,74,72,99,87,88,72,37,75,87,89,89,69,97,99,96,72,97,83,90,80,85,77,95,74,76,88,86,63,67,67,103,96,96,85,68,78,67,95,77,98,75,98,70
0,77,78,74,78,79,53,79,74,77,81,86,77,41,82,83,86,9,84,45,44,92,74,63,79,89,71,54,73,9,66,75,86,85,59,62,84,74,64,64,85,66,106,66,39,75,98,107,66,70
0,74,75,75,75,76,53,77,77,73,78,82,74,45,78,80,84,9,81,46,73,89,71,68,77,87,69,53,70,9,64,73,83,83,58,62,82,77,62,68,51,65,71,66,9,73,96,105,64,69
0,73,75,75,73,75,74,75,75,41,78,78,73,11,75,79,81,107,81,39,40,88,71,40,75,86,67,56,70,109,46,71,76,82,62,68,66,75,67,67,27,89,71,65,9,98,95,46,69,84
0,82,84,80,82,84,58,82,82,100,87,88,82,41,85,88,89,9,90,44,100,96,80,98,83,91,80,57,78,10,76,77,88,62,60,65,90,104,97,97,86,69,105,74,96,78,99,106,99,73
0,73,73,69,71,73,50,73,69,77,83,88,68,40,73,85,87,7,60,43,78,65,69,63,81,91,72,49,74,7,67,76,54,87,55,59,56,70,61,61,86,67,75,63,7,76,99,73,63,64
0,75,75,72,75,75,53,76,72,73,79,85,75,42,77,81,84,8,82,43,44,128,72,66,77,87,70,52,71,8,65,73,84,83,55,61,56,75,63,66,83,65,72,66,39,74,96,73,66,68
0,75,77,74,75,74,55,75,75,72,80,83,75,45,77,81,84,7,82,46,49,90,74,68,77,88,68,54,71,9,47,73,83,84,61,66,65,74,69,68,56,89,72,67,8,98,96,74,72,68
1,80,82,80,80,82,56,82,80,77,84,87,80,47,82,86,88,9,87,48,77,95,78,77,82,92,74,57,76,9,69,79,87,88,90,66,88,82,64,75,52,70,108,69,9,79,101,110,66,73
0,75,76,74,75,76,80,106,75,71,81,87,76,45,77,83,87,8,84,46,71,92,74,67,79,89,75,55,73,9,72,75,86,85,87,65,85,75,67,67,85,66,105,67,9,75,98,107,69,71
0,75,75,71,71,75,53,75,70,74,81,81,77,119,75,82,84,110,84,42,42,91,71,66,78,89,70,53,72,9,65,73,78,85,59,65,85,71,63,66,54,89,74,65,8,98,97,75,65,71
0,107,108,106,107,108,112,107,106,68,80,84,106,46,109,113,85,36,83,47,66,91,105,64,108,88,106,111,72,9,65,73,114,84,118,65,82,107,65,64,52,66,106,65,42,49,97,106,66,86
0,75,73,70,71,78,51,73,70,76,80,84,75,45,83,82,86,8,83,46,44,91,72,64,79,88,70,50,72,9,65,74,85,85,56,62,58,72,62,63,84,65,106,63,39,74,97,107,63,66
0,79,80,79,80,81,52,82,76,79,83,60,78,45,85,84,87,8,85,49,79,66,76,78,81,90,73,52,74,9,74,77,58,86,55,58,86,81,56,78,86,68,76,70,95,77,99,77,57,61
1,36,38,31,36,36,89,36,32,53,13,14,18,49,37,92,13,91,14,50,103,20,34,101,87,15,14,88,34,98,33,82,13,13,52,13,42,35,100,100,89,25,35,27,98,34,102,36,102,15
0,75,75,74,74,78,54,80,74,49,79,80,75,14,82,81,84,108,82,15,17,90,73,72,77,87,69,54,71,9,46,72,77,83,54,66,61,74,65,66,30,87,72,67,8,96,96,47,67,70
0,74,74,73,73,75,53,75,73,44,78,79,74,38,80,80,82,108,81,42,43,89,72,66,77,87,69,55,70,9,46,71,77,83,57,65,61,73,65,66,30,89,72,66,10,98,67,72,68,70
1,78,79,75,75,78,81,78,75,74,84,90,79,47,79,86,88,10,67,48,73,95,75,70,82,92,74,57,75,10,69,78,89,88,90,66,68,75,67,70,87,68,77,69,9,77,100,77,70,71
0,71,71,10,12,71,80,15,11,71,59,86,9,37,71,83,87,86,63,40,72,11,9,94,78,88,76,81,73,92,71,75,85,84,61,65,66,15,63,65,83,65,73,64,92,74,96,74,65,15
0,73,74,75,75,75,57,77,77,72,77,81,74,40,80,79,83,9,80,44,43,88,72,121,76,86,71,57,70,9,102,72,79,82,63,68,81,77,68,68,57,89,104,66,9,98,96,105,69,72
0,80,81,75,80,81,87,109,74,78,87,91,82,45,81,89,91,8,90,46,102,97,79,99,84,93,82,87,79,10,77,79,90,89,56,62,90,75,62,99,88,69,80,67,97,78,101,107,64,70
0,74,51,74,51,76,52,77,70,10,52,57,52,18,15,81,86,85,56,19,15,65,71,8,77,86,50,53,71,91,49,74,55,83,58,46,56,74,45,8,82,64,72,65,6,73,95,12,8,67
0,75,76,76,76,76,76,76,79,72,79,80,76,42,79,81,84,10,82,45,45,90,73,71,77,87,69,74,72,10,64,73,78,83,66,70,81,79,71,71,58,89,105,67,40,98,96,106,73,86
0,74,75,74,74,74,113,106,74,70,80,84,75,44,75,81,84,9,82,45,46,90,73,67,78,87,69,112,71,9,64,73,84,84,64,66,82,75,67,67,55,89,105,66,8,98,97,106,68,69
0,74,76,76,76,77,58,106,77,47,78,81,74,44,79,80,83,9,81,44,46,89,72,69,77,87,70,57,71,9,103,73,79,83,63,68,65,77,68,68,57,66,106,66,41,75,97,106,68,73
0,74,75,72,72,75,78,107,72,76,80,85,75,43,75,82,85,8,83,44,76,91,72,65,79,89,71,54,72,9,66,74,85,85,59,65,63,74,64,65,52,66,106,66,41,75,98,107,67,68
0,76,77,74,76,76,55,77,74,72,60,61,70,9,77,86,89,9,64,9,81,69,73,67,83,92,75,54,76,9,70,77,58,89,84,62,60,77,62,68,88,69,77,67,9,78,101,77,65,70
0,74,76,72,74,74,77,76,72,71,80,85,75,37,76,82,84,8,66,40,42,91,72,65,78,88,70,54,72,9,45,73,84,84,59,65,66,72,64,67,83,65,72,66,8,73,96,73,67,68
0,75,112,110,111,75,81,111,110,70,84,86,110,55,113,116,118,54,86,60,68,124,109,65,111,92,74,79,75,10,68,77,83,88,65,118,81,112,67,67,54,49,76,67,61,58,69,75,70,121
0,74,75,69,71,75,52,74,69,70,81,86,76,41,75,82,85,7,63,42,72,91,71,67,78,88,71,50,72,8,65,74,85,84,54,61,60,71,62,67,84,66,73,65,7,74,97,74,64,67
0,75,76,75,76,75,113,105,76,71,79,85,75,43,77,81,84,9,82,45,44,90,73,67,78,87,70,57,72,10,64,73,84,84,61,67,64,76,68,67,55,89,105,67,9,98,97,106,70,72
0,74,74,72,74,73,76,74,74,43,79,82,74,37,74,81,84,9,82,39,42,90,72,65,77,87,70,54,71,9,45,73,80,83,61,65,82,74,65,66,83,89,72,66,9,98,96,72,67,70
0,74,75,75,75,77,55,75,75,45,78,80,74,37,78,80,82,110,81,39,10,88,71,64,76,86,67,58,70,9,47,71,76,82,60,68,65,75,66,66,54,89,71,67,8,98,95,72,68,75
0,75,75,75,75,75,77,75,74,70,80,86,75,47,76,82,85,8,83,67,70,91,73,67,78,88,70,57,72,10,64,74,79,84,67,70,67,75,68,67,84,65,73,68,9,74,97,74,70,72
0,75,75,75,75,75,76,75,75,11,79,84,75,12,75,80,83,110,63,12,12,89,73,8,77,86,68,55,71,9,47,72,84,82,54,68,66,75,67,67,82,89,72,67,7,98,95,73,69,71
0,74,78,72,74,74,53,74,72,73,83,87,78,42,77,85,88,7,65,45,71,93,74,65,81,91,73,53,74,8,68,76,87,87,89,63,61,73,65,65,86,68,75,65,7,77,99,75,68,69
0,77,79,74,78,79,54,108,76,75,82,83,77,45,110,83,86,8,84,46,47,92,74,66,80,90,71,54,73,8,66,75,81,86,58,62,85,79,62,65,53,67,74,66,41,76,99,108,64,70
0,75,77,76,76,77,55,78,77,47,79,84,75,40,82,81,85,9,82,44,44,90,73,66,78,87,70,54,71,9,48,73,84,84,59,64,60,77,65,66,54,66,105,67,40,75,97,106,68,69
0,77,79,73,74,79,55,76,72,77,82,86,78,43,81,84,87,8,85,45,78,93,75,66,81,90,72,54,74,9,67,75,86,86,59,65,85,73,64,66,53,68,75,66,8,77,99,108,65,68
0,75,76,73,76,77,53,76,73,75,81,86,76,40,80,83,86,9,84,42,43,92,73,65,79,88,71,52,73,10,72,75,85,84,58,62,84,74,65,65,84,89,105,66,38,98,97,106,64,69
0,78,78,72,74,78,47,75,72,78,50,88,77,8,78,84,88,8,57,41,78,65,74,76,81,90,74,47,74,8,70,76,55,86,88,55,51,75,57,76,86,67,75,68,8,76,99,76,55,61
0,20,22,16,20,72,26,22,16,72,28,32,48,92,24,29,32,85,30,93,74,43,18,93,24,34,22,26,19,91,17,22,30,31,31,35,30,18,63,64,82,64,19,62,91,73,95,74,65,62
0,41,33,30,32,44,35,31,31,43,37,31,29,108,44,34,7,99,36,109,112,9,31,109,30,9,30,34,30,58,30,30,33,7,49,39,39,32,37,37,98,36,31,36,107,29,111,42,39,37
0,77,77,77,78,78,60,80,79,75,80,79,77,39,81,81,83,108,82,40,43,90,74,73,77,88,69,60,71,10,48,73,65,84,65,69,84,80,71,71,60,89,104,69,38,98,121,106,72,74
0,74,75,74,75,75,77,74,76,72,79,85,76,43,78,81,85,7,82,44,46,90,72,69,78,88,70,55,71,8,65,73,84,84,63,67,66,75,66,69,56,65,105,66,8,74,97,106,67,70
1,80,81,80,81,81,56,82,82,79,83,84,79,47,85,85,87,10,86,48,48,93,77,79,81,92,73,56,75,10,68,75,63,88,59,64,87,82,65,66,54,69,76,70,45,78,79,110,66,71
0,74,74,69,74,74,80,74,74,76,81,86,77,44,74,83,86,8,67,45,76,92,74,66,79,88,74,82,73,8,70,75,86,85,87,61,64,74,66,65,84,66,105,66,93,75,97,106,68,69
0,75,77,77,77,77,61,77,77,72,78,80,75,41,77,80,82,110,81,44,47,88,72,120,77,86,67,60,71,9,50,71,78,82,67,73,71,77,70,73,108,89,104,67,41,98,121,106,72,79
0,78,79,78,78,80,56,80,76,78,61,82,78,9,84,83,85,9,85,48,9,92,75,69,80,90,71,55,74,11,49,75,61,86,60,65,61,78,67,67,85,67,75,68,9,76,98,76,66,71
0,75,75,72,73,75,53,75,72,76,80,85,75,8,75,82,85,8,62,8,9,91,72,64,78,88,70,53,72,8,48,74,85,84,86,64,59,74,64,66,83,65,73,67,8,74,97,73,66,68
0,75,76,71,73,76,50,74,72,77,82,87,77,42,76,84,87,8,85,43,77,92,72,65,80,89,72,50,73,8,66,75,86,85,53,59,86,73,61,65,85,66,75,64,8,98,98,74,63,67
0,74,74,71,72,74,53,74,72,75,80,85,74,46,74,82,85,9,82,47,75,91,71,65,78,87,70,53,72,9,70,74,85,84,59,65,83,72,64,65,83,65,73,65,92,74,96,72,65,68
0,74,76,74,75,75,55,75,75,47,79,80,74,44,77,80,83,8,81,45,47,89,72,68,77,87,70,54,71,9,47,72,78,83,57,62,81,77,66,68,55,65,72,66,10,74,97,73,68,68
0,79,80,70,70,77,81,76,72,75,63,88,79,12,80,85,88,9,68,10,10,72,76,73,81,91,54,56,75,10,50,77,60,87,62,67,68,72,68,73,87,68,76,67,9,77,100,77,70,72
0,49,49,74,74,49,71,49,77,45,75,76,72,117,49,77,79,107,77,41,45,86,48,42,73,84,65,69,67,10,57,68,73,80,73,79,77,81,70,41,30,89,68,43,39,98,43,49,72,82
0,74,74,74,74,73,112,107,74,69,79,80,74,52,74,81,83,8,82,53,67,90,72,65,77,88,106,111,71,8,63,72,77,84,64,69,82,74,66,67,54,45,72,66,46,49,67,106,68,85
0,73,76,76,76,76,59,78,78,43,77,79,74,11,79,79,82,110,81,13,15,88,72,72,76,86,67,58,69,10,45,70,64,82,64,68,65,78,70,71,27,89,71,65,12,98,73,45,73,72
0,77,77,73,73,77,88,74,73,80,88,92,69,9,78,89,92,9,63,9,9,68,73,100,85,94,83,88,79,10,78,79,91,91,94,64,60,74,63,65,89,70,80,65,98,79,102,78,65,67
0,77,78,74,78,80,44,78,77,9,49,86,70,8,84,83,87,86,52,9,8,61,74,94,79,88,77,46,73,9,73,75,52,83,44,48,49,79,44,78,83,65,74,69,7,74,96,75,46,55
0,74,76,74,76,76,55,77,74,45,79,84,74,40,80,81,85,8,82,41,44,90,72,67,77,87,70,55,71,8,48,73,84,83,61,67,82,74,66,67,83,89,72,66,8,98,96,106,67,70
0,48,51,74,74,48,57,77,76,44,66,78,74,120,78,78,81,110,79,121,42,87,71,42,75,85,66,60,69,9,48,69,75,81,57,68,63,82,70,70,30,89,69,64,9,98,95,48,67,74
0,76,76,69,71,76,52,76,69,78,82,86,77,41,76,83,86,7,85,44,78,92,72,63,80,89,71,52,73,8,67,75,86,85,54,59,85,71,61,64,85,67,106,64,8,76,98,107,64,67
0,75,76,73,73,76,77,73,73,70,80,85,76,43,76,82,85,9,83,46,70,91,72,65,78,88,70,54,72,9,65,74,85,84,59,65,64,73,64,65,84,65,73,66,9,74,97,73,67,69
0,45,73,74,74,74,73,103,78,41,76,81,73,119,79,77,81,110,79,120,40,87,102,120,75,84,67,70,69,10,47,69,75,80,69,75,73,80,72,72,108,89,103,65,35,98,120,103,74,82
0,74,75,73,74,75,54,105,74,70,81,85,75,43,78,82,86,9,83,44,46,91,72,65,78,88,71,54,72,9,65,74,85,84,59,64,82,74,66,66,83,66,105,66,38,98,97,106,68,69
0,77,78,71,77,77,53,78,71,75,86,87,81,43,78,87,89,8,89,44,45,96,74,64,84,94,75,53,77,8,70,78,59,90,58,62,89,73,63,64,89,70,78,65,8,79,102,78,65,70
0,74,74,72,73,74,78,74,73,70,81,86,76,10,74,83,85,9,60,11,11,92,72,67,79,88,71,53,72,10,65,74,86,84,55,67,61,73,66,66,84,66,73,67,9,75,97,74,68,66
0,71,73,69,69,73,51,70,69,74,82,84,77,42,73,83,86,8,84,44,71,91,69,62,80,89,70,52,73,9,66,74,86,85,58,63,85,70,62,62,85,66,74,63,8,75,98,73,64,67
0,80,81,77,79,81,57,79,78,83,87,91,77,9,84,89,90,8,65,9,10,71,77,99,84,93,82,56,78,9,77,79,90,89,59,64,90,79,99,71,88,69,79,70,9,78,101,80,71,68
0,76,79,76,76,78,84,105,76,99,85,88,81,37,79,86,88,9,89,41,99,95,76,97,82,90,80,84,76,9,74,76,88,87,60,64,89,104,96,96,85,67,104,66,95,76,98,106,98,69
0,45,75,75,75,75,61,76,76,46,75,77,74,17,76,78,81,108,78,43,47,87,73,71,75,85,67,60,68,10,50,69,75,81,42,71,73,76,70,71,31,87,51,41,41,96,95,51,71,83
0,74,76,72,72,75,78,75,72,74,81,85,76,45,79,82,85,8,84,46,75,92,72,66,79,89,71,55,72,9,65,74,85,85,60,66,84,74,66,66,84,66,74,66,8,75,98,74,67,70
0,74,77,77,77,77,76,78,78,72,80,85,77,41,78,82,85,9,83,42,43,91,73,69,78,88,70,74,72,10,65,74,85,84,65,70,82,78,70,69,57,89,105,67,39,98,97,106,72,73
0,19,66,11,64,17,83,16,12,71,47,50,47,37,20,84,87,86,63,38,72,13,11,94,81,87,77,82,75,92,19,76,48,83,41,44,47,15,58,58,83,66,76,59,92,74,96,20,58,60
0,76,77,76,76,77,78,107,76,71,81,87,77,44,79,83,87,9,84,46,46,92,74,68,79,89,72,57,73,9,66,75,86,85,62,68,84,76,68,68,57,67,106,68,41,76,98,107,67,72
0,75,76,77,77,78,57,79,79,54,64,80,75,118,82,81,84,110,82,45,49,90,73,72,77,87,69,57,71,10,50,73,64,83,60,65,64,81,68,68,108,89,104,67,9,98,121,106,70,71
0,78,79,72,72,78,53,79,72,74,82,87,78,41,79,84,87,8,85,42,44,93,73,64,80,90,72,54,73,8,67,75,86,86,61,66,85,72,64,64,85,67,74,66,8,76,98,73,67,70
0,110,111,109,110,111,87,110,110,79,87,91,108,42,113,88,91,8,91,43,44,97,75,65,110,94,75,87,78,8,69,79,91,90,119,64,88,111,61,64,51,69,79,65,40,78,101,76,64,69
0,74,74,74,74,74,76,105,74,69,78,83,74,44,74,80,83,9,81,45,69,89,72,67,76,86,71,73,71,10,102,72,83,83,84,70,73,74,68,67,56,89,104,66,38,98,96,105,68,73
0,75,75,74,75,77,55,75,74,76,79,85,75,44,81,82,85,8,83,48,49,90,72,65,78,88,70,55,72,9,64,74,85,84,59,65,83,75,66,65,52,66,106,67,42,74,97,106,68,71
1,80,77,75,75,82,54,75,75,80,85,86,80,46,85,87,89,9,71,47,79,95,75,66,83,93,75,55,76,10,70,78,84,89,58,64,88,75,67,66,53,49,77,67,9,58,102,77,69,71
0,73,73,70,71,74,52,73,71,76,82,86,77,42,81,84,86,8,85,43,77,92,70,62,80,90,72,52,73,8,67,75,86,86,58,62,85,71,62,62,50,67,74,64,8,76,99,108,64,67
0,107,108,105,106,107,112,106,105,70,79,84,106,46,108,113,84,36,82,50,67,90,105,68,108,87,106,111,104,9,103,107,84,84,118,67,70,106,65,68,55,65,105,66,43,48,97,106,67,85
0,105,107,104,105,106,76,105,104,67,81,86,105,62,106,82,86,41,83,63,65,92,104,73,106,87,70,74,103,10,64,104,85,114,75,115,73,106,110,73,52,65,104,64,55,73,96,105,112,86
0,108,110,106,109,110,84,108,107,67,85,89,107,37,112,86,116,31,115,42,43,96,106,65,109,91,81,84,76,11,74,77,89,88,64,66,116,110,64,67,54,89,104,67,37,98,99,107,66,90
0,61,61,61,61,61,80,61,61,66,68,89,62,64,61,68,86,54,89,64,65,92,61,65,78,90,71,77,73,12,67,74,89,87,90,91,90,90,64,64,53,67,76,70,68,76,66,61,66,90
1,76,75,73,73,76,51,75,73,80,57,60,68,9,79,87,89,9,61,9,9,66,73,65,83,93,75,51,77,11,70,78,58,89,57,61,58,74,60,65,88,69,78,65,8,78,101,78,63,67
0,74,75,73,74,75,54,74,73,70,81,86,76,41,76,82,85,8,83,41,44,91,73,65,78,88,71,55,72,8,65,74,85,84,57,64,84,74,65,66,83,65,73,66,39,74,97,106,68,69
0,76,76,74,74,76,78,106,74,72,81,86,76,43,78,82,86,8,83,44,72,91,74,68,79,88,74,56,72,8,66,74,85,85,63,64,84,74,66,67,54,66,106,66,8,75,97,107,68,71
0,73,73,73,73,75,54,103,77,45,77,83,73,120,78,80,83,110,81,121,44,89,71,120,77,85,70,54,70,9,47,72,82,82,56,125,58,78,121,66,31,89,104,64,39,98,95,104,123,71
0,75,76,74,75,76,81,76,75,78,82,87,77,42,76,84,87,8,69,43,9,94,75,97,81,90,76,83,74,10,73,76,86,86,58,64,65,75,67,67,86,67,75,67,8,76,98,76,69,68
0,75,77,76,76,77,53,77,78,74,80,85,76,42,81,82,85,9,83,43,74,90,73,67,78,87,70,53,72,10,64,73,84,83,59,65,83,77,63,67,83,65,73,66,9,74,96,73,65,70
0,107,108,76,76,107,60,106,78,45,78,80,76,38,108,80,83,108,81,41,43,88,105,69,77,87,70,59,70,10,50,72,77,83,63,67,69,79,70,69,108,89,104,67,114,98,121,106,73,84
0,76,78,75,77,78,55,79,79,75,81,82,77,45,79,83,86,9,84,48,49,92,74,66,79,89,71,55,73,10,65,75,80,85,59,65,84,79,62,66,53,67,74,67,43,76,98,107,63,70
1,81,84,74,78,82,53,81,76,82,56,92,74,10,84,90,92,9,62,10,103,71,77,101,86,94,84,54,80,10,79,80,92,90,56,62,58,79,100,100,89,70,81,69,98,79,102,81,102,68
0,75,75,75,75,76,76,76,78,74,79,84,75,42,80,81,83,9,81,45,45,90,73,70,77,87,70,58,71,9,64,73,84,83,65,71,82,75,68,71,82,66,105,67,9,74,96,73,70,75
0,74,74,72,74,74,55,74,74,73,79,85,74,42,77,81,84,9,82,44,70,90,72,66,77,87,71,54,71,10,63,73,84,83,58,64,63,74,66,66,83,65,105,67,9,74,96,73,68,68
0,76,80,75,77,77,84,105,75,75,86,89,81,38,80,87,88,10,89,39,42,96,76,97,82,90,80,85,77,10,75,76,88,87,62,65,87,104,97,97,86,68,78,67,95,77,99,106,99,71
0,75,76,76,76,77,112,106,77,71,79,83,75,44,81,81,84,9,83,49,71,90,72,69,78,88,69,56,72,9,64,73,78,84,60,65,63,77,66,68,55,66,105,66,42,74,97,106,69,73
0,74,75,74,75,77,55,77,74,75,79,83,75,42,81,81,84,9,82,43,45,90,72,65,77,87,70,55,71,10,48,73,79,83,61,63,83,74,66,65,55,89,72,66,9,98,96,73,68,71
0,73,73,73,73,73,75,73,73,47,78,79,74,120,73,80,82,110,82,121,47,89,73,121,76,87,68,72,70,10,51,72,77,83,68,70,77,76,69,68,108,89,105,66,42,98,121,106,68,85
0,76,77,77,78,79,56,80,80,76,81,85,76,42,82,83,86,9,83,43,44,92,74,71,79,88,77,55,73,9,71,74,85,84,58,63,84,80,67,71,84,66,105,68,9,75,97,74,69,71
0,76,77,69,69,76,51,76,69,9,60,86,77,40,77,83,86,86,64,8,9,68,72,94,79,88,77,51,73,8,72,75,85,84,56,62,59,72,63,67,83,65,74,64,92,74,96,75,63,68
0,74,76,73,74,76,53,74,74,78,83,88,77,42,76,85,88,8,62,46,78,94,73,64,81,90,74,52,74,8,73,76,87,86,57,63,59,74,65,64,86,66,75,66,8,75,99,76,63,67
0,74,76,74,74,76,55,76,74,74,80,85,75,41,81,81,85,9,82,45,44,90,73,65,78,87,70,54,72,10,64,73,78,83,60,65,83,74,65,65,83,89,73,66,9,98,96,73,67,70
0,70,71,72,71,71,63,104,77,44,75,77,71,118,71,77,81,110,77,120,43,87,70,120,74,85,67,68,69,9,49,70,74,81,67,75,70,79,71,71,108,89,103,64,114,98,121,104,74,81
0,73,74,75,75,75,59,77,77,48,76,80,74,10,78,79,82,110,80,44,47,87,71,72,76,85,70,58,70,10,51,71,77,81,63,68,65,81,69,72,58,89,103,66,10,98,95,104,71,74
0,76,77,74,75,78,81,78,69,72,81,86,78,41,78,84,86,8,64,42,105,93,74,95,79,88,77,81,74,9,72,74,85,84,58,65,86,102,64,64,84,66,104,65,10,75,97,105,63,68
0,75,75,73,73,75,78,106,73,76,80,86,75,42,75,82,85,9,69,46,76,91,72,63,79,88,71,54,72,9,66,74,85,84,86,63,64,73,64,64,52,65,105,65,40,74,97,106,66,69
0,74,75,71,72,74,82,74,72,77,81,86,75,41,75,83,86,7,60,44,98,94,71,95,80,88,75,81,73,8,72,74,85,84,55,61,84,74,63,63,84,66,74,64,93,75,97,74,65,67
0,106,79,103,74,107,83,106,73,73,83,87,80,40,109,85,88,7,86,44,43,94,105,97,109,90,78,83,104,7,73,75,87,86,62,65,85,105,65,65,53,67,105,67,7,76,99,107,67,90
0,105,106,103,104,106,71,104,103,107,74,76,104,9,106,75,78,10,77,10,9,84,103,121,106,83,104,109,103,15,102,69,73,81,74,78,77,128,120,121,108,89,103,67,8,98,121,104,123,81
0,76,78,74,76,79,55,107,74,77,81,87,76,47,83,83,87,8,84,49,111,92,74,64,80,89,72,54,74,9,67,75,86,85,58,62,84,76,64,66,52,67,107,66,8,76,98,107,64,68
0,108,109,106,108,109,113,108,107,71,82,87,108,49,109,83,87,10,85,50,71,92,106,67,109,90,107,113,73,10,66,75,86,86,62,88,82,108,66,67,52,67,106,66,44,49,98,108,67,88
0,80,80,76,79,83,55,84,76,80,61,85,79,46,86,86,89,10,87,47,48,95,76,79,83,92,75,55,76,10,69,78,63,88,59,65,61,76,62,79,87,68,107,72,10,77,100,109,64,70
0,75,76,76,76,77,57,77,76,72,79,80,75,40,79,81,83,9,81,42,44,89,72,70,77,87,69,57,71,10,48,73,77,83,61,67,65,76,68,68,57,89,72,67,9,98,96,73,70,72
1,73,72,69,69,73,56,73,72,71,60,86,66,10,77,86,88,9,68,10,10,68,72,67,82,92,74,55,75,10,69,77,60,88,63,65,66,72,65,68,87,68,77,65,9,77,100,77,67,69
0,16,18,14,16,29,56,16,16,25,60,13,14,78,18,60,91,89,18,23,24,22,14,22,83,92,17,56,18,95,17,78,14,87,68,23,21,17,22,22,86,67,78,22,95,76,99,30,24,22
0,74,76,71,71,74,53,74,71,75,81,86,76,43,76,82,86,7,84,44,75,91,71,64,79,88,71,53,72,9,65,74,86,85,86,64,84,71,64,64,84,66,73,64,41,75,97,73,65,68
0,75,76,70,74,74,82,75,70,73,83,86,78,9,76,84,86,8,65,9,98,94,74,96,80,88,76,82,74,9,72,74,85,85,87,62,60,70,62,95,84,66,75,64,93,75,97,75,64,69
0,108,109,106,108,109,113,107,107,71,113,86,107,42,109,114,117,33,83,47,45,92,106,65,110,89,108,113,105,9,67,75,86,85,117,66,116,108,65,67,53,67,106,67,40,75,98,107,67,73
0,109,110,76,76,109,66,108,79,70,78,80,76,49,110,81,83,13,81,50,52,90,106,71,108,89,70,66,72,11,59,73,78,85,119,71,72,81,72,71,58,88,73,69,10,97,121,107,70,76
1,79,81,76,77,81,57,79,77,80,84,85,79,47,81,86,88,10,67,48,80,72,77,70,82,93,74,57,76,10,69,77,63,89,91,65,68,77,66,70,57,70,77,71,9,79,74,78,70,72
0,76,76,72,74,76,80,76,72,76,81,87,76,44,80,83,86,8,69,45,77,92,74,67,80,89,75,56,73,9,72,75,86,85,87,65,65,75,66,67,84,66,106,67,9,75,97,107,67,71
0,75,76,75,75,77,54,77,75,73,79,84,75,37,80,81,85,110,82,38,40,90,72,121,78,87,71,54,71,8,65,74,84,83,59,64,82,77,64,66,83,89,105,67,8,98,97,105,66,71
0,107,108,106,107,108,111,107,106,70,80,85,106,46,109,113,115,36,82,47,49,91,105,66,108,88,106,76,104,9,66,74,84,84,113,67,115,107,67,66,53,66,105,67,42,75,98,106,69,86
0,78,79,70,70,79,52,79,70,75,82,86,78,9,80,84,87,8,66,9,9,92,70,61,80,90,72,52,74,10,67,75,86,86,59,63,61,71,62,63,86,67,75,65,8,76,99,75,64,70
0,75,76,76,76,78,59,79,79,50,64,79,74,119,80,81,83,110,81,121,46,89,73,120,78,88,69,59,71,9,50,73,77,84,61,67,66,80,67,70,108,89,104,67,114,98,121,106,69,75
0,28,29,25,28,28,95,28,26,39,31,10,14,38,29,96,9,96,19,39,108,19,26,106,114,10,23,94,25,52,23,87,10,9,37,40,34,27,105,106,94,18,26,19,104,25,107,28,107,23
1,61,61,58,59,61,85,61,59,28,89,94,58,25,61,90,94,93,53,26,27,99,59,26,86,95,32,39,80,23,30,82,93,91,94,50,52,59,50,52,91,52,81,52,24,56,104,32,52,54
0,109,110,81,82,110,59,109,82,80,63,89,80,49,110,62,89,12,87,51,53,94,78,72,82,91,80,59,76,15,54,78,88,87,65,68,65,84,71,72,59,89,106,71,12,98,100,108,70,75
0,75,78,78,78,78,58,78,78,74,80,86,77,38,79,82,85,9,83,43,42,91,73,69,79,88,70,57,72,9,65,74,85,84,61,64,83,78,70,69,84,66,106,66,39,75,97,107,73,71
0,78,81,74,76,78,89,76,74,80,90,93,75,10,81,91,93,9,67,11,10,71,76,102,111,95,84,89,81,9,79,81,92,91,92,66,92,76,66,67,90,71,81,67,9,80,103,79,65,70
0,74,76,76,76,76,53,78,78,74,79,85,75,41,79,81,84,8,65,42,74,91,72,72,78,87,70,54,71,9,65,74,85,83,60,63,82,70,62,67,83,66,105,65,8,75,96,72,64,69
0,18,18,10,10,18,85,16,10,74,56,54,10,74,18,87,90,88,54,74,76,9,11,97,83,91,45,85,19,95,18,78,53,87,31,42,53,10,39,70,86,67,78,61,95,76,99,18,41,13
0,78,78,69,69,78,49,71,69,80,84,85,69,40,78,86,88,7,87,43,80,94,69,59,82,92,72,49,75,8,68,77,56,88,53,59,87,69,60,60,87,68,77,61,7,77,100,77,62,65
1,75,77,77,77,78,57,78,78,40,79,80,75,36,80,81,83,108,82,37,39,89,73,70,78,87,70,57,71,12,45,73,78,84,63,65,82,78,70,70,25,87,72,67,35,96,97,107,68,73
0,74,75,74,74,75,53,74,73,73,79,83,74,43,80,81,84,8,82,44,45,90,71,64,77,87,70,53,71,9,64,73,84,83,54,61,82,74,65,65,83,89,105,65,9,98,96,106,66,67
0,76,78,73,76,78,53,79,74,75,81,86,76,40,80,83,86,8,66,43,45,92,74,70,79,89,72,53,73,8,66,75,86,85,52,64,59,76,65,70,85,89,74,68,8,98,98,75,64,70
0,76,77,77,77,78,55,79,78,51,61,79,75,118,82,59,83,108,82,51,50,89,73,70,77,87,69,55,71,11,54,71,62,83,60,64,61,82,64,68,57,87,104,67,10,96,121,107,66,85
0,76,76,76,76,77,57,77,76,72,80,80,76,42,77,82,84,9,83,45,45,90,73,69,78,88,69,56,72,9,64,73,78,84,61,66,83,76,68,68,56,66,105,67,39,74,96,106,70,72
0,74,76,76,76,76,57,78,78,44,79,83,74,120,80,80,84,110,82,121,42,89,72,121,78,87,70,56,71,9,46,72,82,83,61,65,82,79,66,69,108,89,104,66,37,98,121,106,69,72
0,107,108,75,75,107,112,106,105,71,79,83,75,46,108,80,84,8,82,47,49,89,105,70,78,87,107,112,105,9,103,74,82,84,65,67,69,106,67,71,57,66,105,67,43,75,97,106,70,74
0,75,76,70,76,75,53,75,70,71,80,85,75,13,76,81,85,108,64,14,17,91,72,66,77,88,47,53,71,9,44,73,56,84,85,66,60,72,64,66,83,89,72,66,10,98,96,73,66,69
1,76,112,76,76,77,81,110,76,72,83,85,79,46,112,85,88,9,86,49,75,94,76,70,112,92,74,59,75,10,69,76,83,88,65,69,67,76,67,70,56,69,109,69,65,54,72,110,68,73
0,74,73,72,72,74,76,73,71,74,79,84,75,9,73,81,84,8,67,9,11,90,72,69,77,87,70,55,71,9,64,73,84,84,84,64,65,72,65,65,83,89,72,66,8,98,96,72,67,71
0,75,75,75,75,75,56,75,75,44,80,80,75,41,83,81,83,109,82,42,44,90,73,65,77,88,68,56,72,10,46,73,77,84,64,70,65,75,66,70,29,89,73,68,39,98,71,74,68,75
0,78,80,70,72,76,48,74,70,77,48,54,66,8,79,85,88,8,52,8,8,64,70,97,81,90,47,48,75,8,73,76,51,86,47,57,51,72,59,44,86,67,76,62,7,76,99,77,47,63
0,77,77,73,77,77,53,77,73,81,85,60,71,43,78,87,89,9,63,44,81,69,73,68,83,93,75,53,76,9,69,77,58,89,55,61,59,77,64,68,88,69,77,67,9,78,101,77,65,68
0,49,72,74,74,74,65,103,76,44,75,77,74,117,78,77,80,107,78,46,46,86,69,72,75,85,66,67,67,109,50,68,75,81,68,71,72,80,72,72,108,89,103,42,40,98,120,104,75,81
0,74,76,74,76,76,57,77,76,72,79,84,75,42,80,81,84,8,82,43,44,90,73,68,77,87,69,56,71,9,64,73,84,83,61,66,82,76,66,68,56,89,104,66,9,98,96,105,68,70
0,76,76,73,73,76,89,75,73,80,60,60,73,9,78,91,93,8,68,9,9,69,73,101,111,95,83,89,80,9,78,80,92,91,60,65,63,73,65,67,89,70,81,67,99,79,102,77,67,69
0,76,80,71,71,79,54,76,71,77,65,85,80,45,80,86,89,9,68,46,78,71,72,64,82,92,74,54,76,9,69,78,61,88,60,66,65,72,64,64,88,69,77,67,9,78,101,78,66,72
0,105,75,76,76,76,112,105,77,72,78,84,75,41,78,80,83,9,81,46,45,89,103,68,77,86,106,111,70,9,102,73,83,83,65,68,69,78,69,69,57,89,104,66,9,98,96,105,72,84
0,106,75,74,74,75,77,106,73,69,80,85,75,44,107,81,85,8,82,49,69,91,105,66,78,88,71,75,72,9,65,74,85,84,63,69,83,75,67,67,54,66,105,66,42,74,97,106,69,75
0,78,79,78,78,80,54,80,78,78,82,83,78,9,84,84,86,8,85,45,47,92,75,76,80,90,71,54,74,9,66,75,62,86,58,63,60,78,63,63,86,67,75,69,9,76,98,108,66,71
0,77,78,74,77,78,82,77,74,75,82,87,77,45,79,84,88,8,65,46,77,94,74,66,80,89,78,55,74,9,73,76,87,86,87,64,85,74,66,66,85,67,106,67,94,76,98,107,68,69
0,74,75,75,75,75,76,75,74,70,79,84,75,43,75,81,84,9,82,44,46,90,72,66,77,87,70,74,71,10,64,73,84,83,84,66,67,74,66,66,83,89,105,66,7,98,96,105,69,71
0,106,107,104,106,107,111,105,105,70,79,84,105,47,107,112,84,9,81,48,69,90,104,121,107,87,105,111,103,9,64,73,114,83,114,69,81,106,67,69,54,89,104,66,40,98,96,105,69,85
0,71,71,69,69,10,81,10,10,73,63,87,78,43,10,83,87,7,67,71,9,10,75,8,79,89,78,82,73,9,72,75,86,85,66,68,69,10,65,67,84,66,75,68,7,75,97,75,67,10
0,76,76,77,77,78,60,79,78,47,79,80,78,30,81,82,85,108,82,34,47,91,76,75,78,88,70,59,71,9,49,74,79,84,61,67,67,81,72,74,22,87,72,68,33,96,97,41,73,76
0,75,75,75,75,76,54,75,74,73,79,82,75,44,78,81,84,8,82,45,45,90,71,64,78,88,69,54,71,9,64,73,79,84,56,61,60,75,63,63,51,65,105,67,40,74,97,106,63,69
0,48,48,19,21,48,83,21,19,66,31,29,20,93,48,85,6,86,33,94,71,12,19,94,21,6,19,82,21,92,43,75,27,5,57,34,61,20,94,94,83,65,75,40,92,74,95,48,95,39
0,76,76,76,76,77,53,76,74,45,80,85,76,9,81,81,84,8,82,43,43,90,73,67,78,87,69,53,72,9,46,73,58,83,55,61,83,76,64,67,83,65,73,66,9,74,96,74,66,68
1,73,73,71,71,73,80,73,72,77,83,84,78,49,73,84,86,8,86,75,76,93,73,65,81,91,72,60,74,9,67,75,81,88,88,65,71,73,65,65,52,49,75,66,63,52,75,73,67,69
0,73,73,107,108,76,76,108,107,73,77,83,106,53,80,79,84,32,80,57,58,120,105,74,107,88,106,73,71,16,64,73,80,84,68,72,72,109,74,74,60,89,72,67,41,51,121,72,75,112
0,49,50,76,76,49,57,76,76,45,79,80,75,38,77,80,82,107,76,40,44,89,73,70,77,87,66,57,49,12,49,71,75,83,64,70,64,77,69,70,31,89,50,67,38,98,71,49,71,73
0,75,76,72,73,75,49,75,74,71,57,87,76,9,76,83,86,9,61,9,70,66,73,66,79,89,51,51,73,9,67,75,55,85,51,58,54,74,67,66,85,66,74,66,8,74,98,75,69,67
0,76,77,76,76,77,78,76,76,72,80,82,76,45,77,82,84,9,83,47,48,90,73,66,79,89,71,58,72,9,66,74,80,85,63,66,67,76,68,68,56,66,107,68,41,75,98,107,71,76
0,107,108,77,77,79,59,106,79,52,66,79,75,39,82,81,84,109,82,45,44,90,73,70,78,88,69,58,72,10,49,73,77,84,64,69,66,83,69,68,57,89,105,68,40,98,121,106,68,74
0,67,53,10,11,69,83,14,10,67,55,87,51,42,17,85,88,86,62,75,68,9,10,94,80,88,47,49,74,92,72,75,54,84,57,63,64,16,62,63,83,65,75,60,92,74,96,69,65,66
0,74,76,76,76,76,75,106,78,71,79,79,76,45,81,80,83,9,81,46,46,90,73,121,77,87,106,61,71,10,62,73,77,83,66,70,72,81,69,72,59,89,104,67,9,98,96,106,69,77
0,76,76,72,72,76,53,108,72,77,81,84,76,43,81,83,86,9,84,44,74,92,72,62,80,90,72,53,73,9,66,75,83,86,58,60,84,72,64,64,51,67,106,65,41,76,99,108,63,68
0,74,76,76,76,76,75,76,78,71,79,84,76,39,78,80,84,110,82,41,43,89,72,68,77,86,68,57,71,10,62,72,77,82,63,86,68,76,68,69,82,89,71,66,9,98,95,72,70,72
0,72,72,71,71,72,78,72,72,76,81,86,76,42,72,82,85,8,83,44,75,92,72,63,79,88,71,53,72,9,66,74,86,85,58,63,84,72,64,64,50,66,107,65,8,75,98,107,66,68
0,78,80,72,78,78,47,77,69,9,48,53,55,9,78,84,87,86,52,9,12,62,75,95,80,88,48,47,74,93,73,76,52,84,88,44,46,77,44,43,84,65,75,70,93,74,97,77,44,56
0,25,26,16,16,25,94,25,16,21,95,98,16,38,26,96,99,97,14,39,108,17,23,106,114,99,89,93,86,38,83,87,97,95,100,13,19,17,105,106,94,14,87,14,104,23,107,25,11,17
0,107,108,105,106,107,78,106,106,70,80,86,106,48,108,113,86,9,83,49,70,92,105,67,108,88,73,58,104,9,68,74,84,84,114,66,83,106,67,67,54,66,104,67,42,75,97,106,70,73
0,107,108,105,107,108,111,107,106,71,79,114,106,49,108,112,115,35,83,50,70,91,105,69,108,88,105,75,104,10,65,74,114,84,113,86,82,107,68,69,56,66,104,67,43,48,97,106,71,86
0,107,107,104,106,107,112,106,105,73,78,83,106,43,107,80,83,9,81,45,46,88,104,66,108,87,106,112,104,10,102,71,115,83,66,71,72,106,66,69,55,89,105,66,41,50,73,106,68,85
1,78,80,70,71,78,51,78,69,74,84,90,68,47,78,86,89,9,65,48,80,95,70,65,82,92,74,51,76,9,69,78,89,88,90,64,59,71,62,62,87,69,77,64,9,78,100,78,63,69
0,79,81,79,80,81,55,82,81,78,84,65,79,9,83,85,87,9,86,48,9,93,77,75,81,91,72,55,75,10,67,76,61,87,58,62,87,82,64,63,51,68,76,70,9,77,100,109,61,67
0,74,75,75,75,76,60,75,74,70,78,79,74,41,75,80,81,110,81,45,46,88,73,120,76,87,68,58,70,10,52,72,76,83,65,70,66,83,68,68,108,89,104,67,38,98,121,106,70,74
0,75,79,73,74,78,84,74,73,77,84,87,79,9,80,85,87,8,87,44,99,94,74,96,81,90,79,83,75,9,74,75,87,86,58,63,86,74,96,96,85,68,76,66,94,75,98,106,68,69
0,76,77,70,73,76,54,73,72,76,81,86,76,9,77,83,86,7,67,9,9,92,73,63,79,88,71,53,73,9,66,75,86,85,57,62,64,73,63,65,84,66,74,68,7,75,97,74,65,67
0,74,76,74,74,76,77,74,72,75,80,85,76,42,77,82,85,9,83,46,46,91,72,65,79,88,70,53,72,9,65,74,85,84,59,64,84,74,63,65,52,66,105,66,9,74,97,106,64,68
0,75,75,72,72,76,55,79,70,74,80,81,75,37,81,81,83,109,68,15,14,90,72,71,77,87,69,55,71,9,46,72,64,84,60,64,66,73,64,64,29,89,72,66,8,98,96,73,67,72
0,106,77,75,75,107,54,106,75,106,84,87,75,45,80,85,87,8,86,46,106,94,75,97,109,90,79,55,75,9,74,75,87,86,58,62,85,76,66,67,54,67,105,67,95,76,98,106,68,69
0,74,77,77,77,77,78,77,72,74,80,85,77,43,79,82,85,8,83,44,45,91,72,73,78,88,72,54,72,9,65,74,84,84,60,62,83,72,64,70,83,65,105,66,39,74,97,106,66,70
1,79,79,78,79,79,82,79,79,75,84,90,79,10,79,85,89,10,71,10,75,95,78,72,82,92,79,60,76,10,69,78,88,88,90,66,70,79,71,71,87,68,77,71,9,77,100,78,73,73
