5.020554799999999984e-01,5.421626499999999682e-01,7.223834799999999667e-01,1.428885200000000077e+00,2.136515800000000187e+00,2.281149000000000093e+00,1.936273700000000098e+00,1.468890000000000029e+00,1.008845100000000050e+00,3.802822399999999936e-01,-2.967796699999999954e-01,-5.139286800000000266e-01,-2.556446900000000078e-01,-1.072025399999999989e-01,-2.878265500000000143e-01,-4.180090100000000142e-01,-3.191631300000000171e-01,-2.603787000000000185e-01,-3.503572099999999745e-01,-5.054859900000000517e-01,-7.108870900000000548e-01,-8.239198199999999694e-01,-8.997015400000000218e-01,-1.153949700000000078e+00,-1.229830600000000107e+00,-1.044091000000000102e+00,-1.202031199999999966e+00,-1.392194900000000013e+00,-1.130108300000000066e+00,-1.179866599999999988e+00,-1.649271799999999955e+00,-1.726575399999999982e+00,-1.608370400000000089e+00,-1.662802200000000008e+00,-1.650672399999999929e+00,-1.697309399999999968e+00,-1.838696799999999909e+00,-1.802596199999999982e+00,-1.780536099999999955e+00,-1.825166499999999914e+00,-1.644763299999999928e+00,-1.423809700000000067e+00,-1.392194900000000013e+00,-1.360415600000000058e+00,-1.200178100000000025e+00,-9.186323400000000472e-01,-6.859158100000000147e-01,-6.679434600000000444e-01,-5.127215400000000312e-01,-1.016906900000000002e-01,6.395425899999999941e-02,8.261431099999999583e-02,2.376071800000000012e-01,1.747931799999999924e-01,1.232053899999999980e-01,5.033942000000000139e-01,6.838701999999999837e-01,4.749947600000000159e-01,5.327971099999999627e-01,7.235499499999999973e-01,6.644198000000000048e-01,6.479355900000000057e-01,7.570540300000000444e-01,7.320716000000000445e-01,6.202149900000000216e-01,6.062967700000000404e-01,6.779501599999999684e-01,6.890836299999999470e-01,5.988072800000000528e-01,5.426465600000000000e-01,5.818073700000000459e-01,6.306306799999999990e-01,6.644198000000000048e-01,6.863177999999999779e-01,6.573825100000000310e-01,6.508894400000000413e-01,7.217383699999999624e-01,7.397064500000000153e-01,6.914805200000000429e-01,6.952294700000000161e-01,7.501145000000000174e-01,8.538448499999999886e-01,9.160188799999999798e-01,8.277496899999999824e-01,8.809055700000000266e-01,1.088830699999999929e+00,9.310429399999999855e-01,6.102983600000000397e-01,6.388942699999999864e-01,6.846785699999999864e-01,5.832376400000000016e-01,6.405216700000000429e-01,7.085851499999999970e-01,7.050108800000000064e-01,7.138154500000000180e-01,4.337646399999999791e-01
1.476468999999999976e-01,8.046683999999999504e-01,3.677714899999999787e-01,2.438937100000000135e-01,2.661388199999999843e-02,-2.744021099999999769e-01,9.673058299999999499e-02,-7.477306400000000020e-01,-1.609777100000000072e+00,-1.179593099999999950e+00,-1.055926399999999932e+00,-1.128777399999999931e+00,-6.860386699999999616e-01,-7.987886600000000392e-01,-1.714279099999999945e+00,-1.649858400000000058e+00,-1.032698799999999917e+00,-1.423917899999999959e+00,-1.782433300000000109e+00,-1.025125700000000029e+00,-1.798908600000000080e+00,-1.793613600000000030e+00,-1.085478299999999896e+00,-1.574389899999999898e+00,-1.036059499999999911e+00,-2.130021000000000164e+00,-2.038621299999999970e+00,-5.501273000000000274e-02,-1.140194900000000011e+00,-7.042752100000000404e-01,4.872308399999999984e-02,-4.758541099999999968e-01,5.258651800000000431e-01,2.447776700000000027e-01,6.799317599999999961e-01,9.286012000000000155e-01,5.730409499999999934e-01,1.231606600000000107e+00,1.043324300000000093e+00,1.580228100000000024e+00,1.290571399999999924e+00,7.505178799999999706e-01,9.775666699999999709e-01,1.141588100000000106e+00,1.529904399999999942e+00,8.476816299999999638e-01,7.667604000000000086e-01,5.656821800000000344e-01,1.084625699999999915e+00,1.057368499999999933e+00,5.030841099999999733e-01,9.532882099999999692e-01,4.541982399999999753e-01,1.198969799999999974e+00,8.497198900000000332e-01,-1.377147400000000022e-01,6.311204500000000550e-01,6.940750100000000478e-01,5.150709500000000274e-01,5.592293999999999876e-01,5.557119999999999838e-01,4.696940299999999846e-01,3.888212099999999727e-01,3.431293699999999891e-01,5.355978799999999707e-01,9.007083700000000359e-01,6.568458700000000539e-01,6.900329400000000390e-01,9.525962999999999514e-01,5.477699099999999710e-01,-1.676926800000000106e-01,1.153194100000000041e-02,-1.764878500000000017e-01,-2.777064699999999831e-01,-2.248359199999999947e-01,-9.107229300000000416e-01,-3.793178700000000153e-02,7.166767100000000223e-02,-1.048919799999999958e+00,-6.362175799999999493e-01,-3.866367399999999788e-01,-5.075122800000000378e-01,-7.166559000000000124e-01,-4.637577099999999897e-01,-4.604422699999999868e-01,-7.707924499999999624e-01,-5.335034800000000299e-01,-4.002280999999999755e-01,1.760841300000000054e-01,1.111768000000000089e+00,2.438428200000000157e+00,2.734888600000000114e+00,1.736054399999999998e+00,3.685655100000000128e-02,-1.265074400000000043e+00,-2.080243900000000035e-01
3.166461600000000098e-01,2.431990800000000119e-01,3.704714399999999852e-01,1.063738099999999909e+00,1.678187099999999932e+00,1.759557500000000108e+00,1.697717200000000037e+00,1.612158999999999898e+00,1.168187700000000051e+00,4.999570400000000192e-01,-2.236253300000000041e-02,-2.353181599999999984e-01,-1.182725099999999974e-01,-7.102735599999999982e-02,-3.229864399999999858e-01,-4.335620800000000163e-01,-3.186597099999999849e-01,-2.956548600000000193e-01,-4.177328399999999942e-01,-6.824796899999999722e-01,-8.818397700000000228e-01,-8.433204800000000390e-01,-8.836517699999999476e-01,-1.030018499999999948e+00,-1.055265499999999967e+00,-1.168636800000000031e+00,-1.363990500000000106e+00,-1.337611099999999942e+00,-1.261293599999999904e+00,-1.409782199999999985e+00,-1.634504100000000015e+00,-1.703237700000000077e+00,-1.677024899999999930e+00,-1.782627799999999985e+00,-1.996871599999999969e+00,-2.056371599999999855e+00,-1.937880899999999906e+00,-1.879411600000000071e+00,-1.915426599999999979e+00,-1.845506899999999950e+00,-1.658134999999999915e+00,-1.509483200000000025e+00,-1.393426099999999890e+00,-1.232868300000000028e+00,-1.024348299999999989e+00,-7.686400100000000402e-01,-5.112937300000000018e-01,-3.095639900000000111e-01,-1.319616299999999964e-01,3.505408200000000030e-02,1.421588099999999966e-01,2.258066499999999976e-01,3.436903599999999726e-01,4.285890700000000164e-01,4.695676999999999768e-01,5.697819200000000528e-01,6.756663200000000424e-01,6.998853499999999617e-01,7.325607499999999828e-01,7.716652000000000511e-01,7.381294299999999753e-01,7.236995000000000511e-01,8.068759300000000190e-01,8.789844900000000072e-01,8.557912699999999928e-01,8.063843299999999825e-01,7.925009400000000426e-01,8.038141300000000156e-01,7.819383899999999832e-01,7.004390799999999917e-01,7.359599399999999791e-01,8.641616600000000536e-01,7.076698399999999944e-01,4.587561399999999789e-01,6.001455599999999668e-01,8.251364599999999605e-01,8.000342499999999468e-01,7.628211200000000192e-01,7.554428300000000096e-01,6.537658800000000214e-01,5.264409199999999789e-01,4.773390900000000214e-01,5.749459599999999782e-01,6.984245599999999721e-01,7.224143100000000040e-01,7.715979299999999874e-01,7.642290400000000261e-01,6.106214599999999493e-01,5.529003399999999901e-01,5.667860799999999699e-01,6.040023599999999604e-01,7.770678100000000255e-01,8.123454199999999847e-01,7.488481399999999955e-01,8.180420400000000258e-01,5.393470399999999998e-01
1.168874100000000027e+00,2.075900799999999879e+00,1.760140500000000108e+00,1.606445899999999982e+00,1.949045600000000045e+00,1.302842099999999892e+00,4.593315399999999826e-01,5.164121200000000300e-01,8.521795300000000184e-01,9.892271700000000445e-01,8.212534900000000304e-01,5.764476400000000389e-01,7.430894399999999900e-01,8.529702000000000117e-01,3.074583499999999914e-01,-1.303906499999999968e-01,-6.219996900000000079e-02,-1.007269600000000043e-01,-2.328181900000000082e-01,-2.344647699999999890e-01,-2.147557300000000058e-01,-2.304125700000000110e-01,-2.275514899999999952e-01,-2.310023800000000072e-01,-4.634787300000000054e-01,-7.242146200000000311e-01,-7.878848800000000097e-01,-9.866865700000000405e-01,-1.224671999999999983e+00,-1.288141800000000003e+00,-1.364148099999999975e+00,-1.428221299999999916e+00,-1.501766900000000016e+00,-1.648083699999999929e+00,-1.705836200000000025e+00,-1.686790500000000081e+00,-1.705719299999999938e+00,-1.777683300000000077e+00,-1.869313199999999897e+00,-1.858376100000000086e+00,-1.737716700000000003e+00,-1.729148600000000036e+00,-1.728105400000000014e+00,-1.546037300000000059e+00,-1.459102499999999969e+00,-1.410751799999999889e+00,-1.163427299999999942e+00,-9.074187400000000014e-01,-7.162106200000000200e-01,-5.817633700000000019e-01,-4.425260500000000041e-01,-2.070461700000000016e-01,-2.646265800000000001e-02,1.170362699999999978e-01,2.206366200000000055e-01,2.643151599999999934e-01,4.050549800000000089e-01,4.649743399999999860e-01,4.341626399999999886e-01,4.868071999999999955e-01,4.393877299999999764e-01,3.696108699999999803e-01,4.131486600000000009e-01,3.978946999999999901e-01,3.187637099999999779e-01,2.637173600000000118e-01,2.888630799999999943e-01,3.582440299999999911e-01,3.267371399999999815e-01,2.292153899999999911e-01,2.044177600000000039e-01,2.443858799999999998e-01,2.626319899999999818e-01,2.438847500000000112e-01,2.275022800000000012e-01,2.457849500000000020e-01,2.329591599999999985e-01,1.646107699999999896e-01,1.715376700000000032e-01,1.666903700000000044e-01,9.914139399999999380e-02,1.469366300000000125e-01,1.334144399999999953e-01,1.252944300000000122e-01,2.027134300000000000e-01,1.864091300000000062e-01,4.190064499999999748e-01,7.238875500000000462e-01,1.323946899999999927e+00,2.136487600000000153e+00,1.746596500000000107e+00,1.470220499999999930e+00,1.893512300000000037e+00,1.256949300000000047e+00,8.004065799999999786e-01,7.315398100000000126e-01
6.486575199999999874e-01,7.520259500000000541e-01,2.636231200000000108e+00,3.455715599999999998e+00,2.118157399999999857e+00,5.206202399999999564e-01,-1.886265599999999987e-01,7.808184099999999628e-01,9.337746900000000183e-01,7.014020199999999594e-01,1.006132999999999944e+00,3.957837900000000242e-01,-3.697030399999999828e-01,-7.382020599999999932e-01,-7.290841500000000419e-01,-9.069396800000000258e-01,-8.709623499999999963e-01,-1.060216999999999965e+00,-1.197958400000000090e+00,-9.816019400000000061e-01,-1.272497200000000106e+00,-1.287380200000000086e+00,-1.276697900000000052e+00,-1.539701699999999951e+00,-1.346610099999999921e+00,-1.535216899999999995e+00,-1.763418399999999941e+00,-1.688820900000000069e+00,-1.809368499999999935e+00,-1.863891399999999976e+00,-1.994453400000000043e+00,-1.889810200000000107e+00,-1.925713199999999903e+00,-1.833629299999999906e+00,-1.661829800000000024e+00,-1.342510400000000104e+00,-1.011317400000000033e+00,-6.727166500000000271e-01,-2.161567100000000019e-01,5.287157199999999863e-02,5.620896600000000465e-01,7.008798499999999709e-01,9.469267700000000287e-01,1.004997300000000093e+00,1.027542299999999909e+00,1.191663600000000045e+00,9.688553300000000146e-01,8.446175400000000000e-01,7.794920899999999708e-01,7.439379999999999882e-01,6.733529099999999712e-01,5.052763599999999800e-01,6.625468500000000205e-01,6.077028899999999956e-01,5.461045700000000114e-01,6.871625700000000281e-01,5.430041700000000082e-01,4.531476600000000077e-01,4.857845700000000266e-01,4.406790199999999769e-01,5.391533200000000470e-01,3.695714600000000183e-01,3.773157300000000158e-01,4.701133800000000251e-01,3.214479900000000168e-01,3.255134399999999872e-01,2.512587499999999752e-01,2.705711000000000088e-01,2.771613099999999941e-01,1.551711699999999972e-01,1.209543099999999954e-01,3.263950899999999988e-01,4.739518300000000184e-01,5.947361100000000400e-01,6.981994599999999940e-01,8.267808800000000513e-01,5.751662499999999900e-01,4.011960700000000157e-01,3.499661199999999917e-01,1.480527899999999897e-01,-3.320628800000000047e-02,-1.142664099999999988e-01,1.203453800000000018e-01,-2.201016899999999887e-01,-1.512260800000000127e-01,-7.744465899999999903e-02,-9.786877600000000454e-02,-1.367869700000000077e-01,-3.402366900000000083e-01,-8.944142800000000337e-02,-8.029727799999999971e-02,-1.925844399999999956e-01,-3.047044400000000208e-01,-4.545562499999999950e-01,3.145899999999999808e-01,5.821895000000000264e-01
4.047326500000000271e-01,1.280858700000000017e+00,2.515147900000000103e+00,1.299518699999999916e+00,1.453432300000000010e+00,4.742750800000000155e-01,-1.396561900000000023e+00,-6.470807899999999613e-01,4.319451000000000263e-01,1.324451199999999995e-01,-4.066090199999999877e-01,2.305663300000000138e-01,-1.213526699999999958e-01,-9.186398000000000064e-01,-1.246770900000000015e+00,-1.348373599999999950e+00,-1.190283299999999933e+00,-1.011269799999999996e+00,-2.003920100000000204e+00,-1.327036700000000069e+00,-9.760342800000000318e-01,-1.863616900000000021e+00,-1.487691400000000108e+00,-1.616139900000000074e+00,-1.957563399999999953e+00,-1.700663700000000000e+00,-1.518478800000000017e+00,-1.897584299999999891e+00,-2.177174799999999966e+00,-1.872789400000000049e+00,-1.775290500000000105e+00,-1.668158599999999936e+00,-1.933343299999999987e+00,-1.489611800000000041e+00,-1.150733100000000064e+00,-1.078156099999999951e+00,-7.737231599999999654e-01,-5.202206999999999804e-01,-2.052527700000000010e-01,-2.660819099999999979e-02,2.990538500000000099e-01,1.943196600000000052e-01,7.017931800000000164e-01,6.718909400000000476e-01,8.537865900000000119e-01,6.768520500000000384e-01,8.989160099999999876e-01,7.722582199999999952e-01,6.498631000000000268e-01,6.388162899999999533e-01,6.702502299999999469e-01,1.037435899999999966e+00,4.330532599999999954e-01,6.571586200000000266e-01,5.290132699999999799e-01,5.620705099999999677e-01,1.028351299999999968e+00,-1.968646699999999916e-02,1.177761800000000081e+00,8.479042300000000365e-01,1.694320199999999887e-01,6.734336800000000345e-01,6.352647000000000155e-01,7.482200300000000359e-01,6.401666299999999588e-01,5.913158899999999552e-01,4.316807500000000020e-01,7.174997400000000525e-01,5.954163599999999779e-01,4.584877900000000062e-01,4.835664800000000207e-01,6.557126800000000477e-01,4.907944699999999827e-01,1.066870299999999938e+00,9.291487800000000075e-01,9.390261500000000039e-01,1.312177900000000008e+00,5.806043300000000018e-01,5.709592799999999579e-01,5.227745200000000203e-01,4.463225399999999898e-01,6.206821999999999617e-01,4.971337099999999926e-02,2.698562999999999934e-01,4.189184499999999978e-01,-6.434566899999999423e-02,3.764691199999999904e-01,2.778111100000000278e-01,2.256758199999999992e-01,1.590908099999999992e-01,4.083539700000000106e-01,5.400151899999999783e-01,-2.779115899999999931e-02,2.034762300000000079e-01,3.469638899999999970e-01,3.391846900000000109e-01
1.205006199999999916e+00,2.031855399999999978e+00,2.447293699999999905e+00,2.739447900000000047e+00,2.745889899999999884e+00,2.276355300000000081e+00,1.525365899999999941e+00,7.605965500000000379e-01,1.884476700000000116e-01,-2.905146200000000012e-02,-4.952367800000000153e-02,-2.099641800000000003e-01,-3.741503400000000257e-01,-2.486375799999999969e-01,-9.501668200000000508e-02,-9.947916199999999598e-02,-1.214158500000000057e-01,-3.585485800000000056e-01,-7.391347600000000018e-01,-7.876516500000000365e-01,-7.089410900000000515e-01,-7.597559499999999577e-01,-7.410576899999999911e-01,-8.817068500000000419e-01,-1.018906000000000089e+00,-5.813826699999999903e-01,-3.589932800000000257e-01,-9.242181400000000213e-01,-1.094808500000000073e+00,-6.613644499999999926e-01,-7.851240400000000230e-01,-1.288156599999999985e+00,-1.334503400000000006e+00,-1.267790999999999890e+00,-1.502142499999999936e+00,-1.639971599999999974e+00,-1.533962499999999896e+00,-1.566856999999999944e+00,-1.730994499999999992e+00,-1.719666399999999928e+00,-1.668494499999999992e+00,-1.735507099999999969e+00,-1.647286900000000109e+00,-1.387558800000000092e+00,-1.309605499999999978e+00,-1.319653600000000093e+00,-1.100391899999999978e+00,-9.004583099999999840e-01,-9.343422399999999906e-01,-7.651926900000000087e-01,-3.175038499999999764e-01,-1.271200399999999897e-01,-1.239391400000000032e-01,9.441790899999999431e-02,2.884260599999999841e-01,2.613470700000000146e-01,2.897323399999999771e-01,4.072777799999999782e-01,4.366374100000000036e-01,4.493081199999999775e-01,5.708667200000000497e-01,7.111779900000000376e-01,6.727079099999999645e-01,5.010222500000000023e-01,5.047427599999999570e-01,6.440953000000000372e-01,5.693420999999999621e-01,4.063779200000000036e-01,4.502258399999999883e-01,5.175237499999999491e-01,5.027650099999999567e-01,5.719333800000000467e-01,6.346928099999999962e-01,6.493090999999999724e-01,7.030811700000000330e-01,5.876928900000000233e-01,3.551989999999999870e-01,3.909633599999999820e-01,5.588264099999999956e-01,6.110082000000000013e-01,6.925751500000000282e-01,7.944462300000000310e-01,8.968865700000000496e-01,1.051482199999999922e+00,9.391156000000000503e-01,5.557414999999999994e-01,4.473113699999999859e-01,5.646415000000000184e-01,4.876002600000000076e-01,4.210033100000000195e-01,5.497660399999999559e-01,5.054632000000000014e-01,2.818443400000000265e-01,3.468314499999999856e-01,5.263751700000000033e-01,2.278896900000000059e-01
5.982413699999999945e-01,1.098728799999999950e+00,1.683528700000000100e+00,2.478913400000000156e+00,2.802412700000000090e+00,2.438696000000000197e+00,1.717656899999999931e+00,1.009308600000000000e+00,2.573508400000000251e-01,-2.215585300000000035e-01,-1.355817500000000009e-01,-1.912687000000000137e-01,-3.069717599999999824e-01,-1.676405199999999873e-01,-9.800510299999999619e-02,-5.625959600000000199e-02,-3.234000000000000208e-01,-6.301811000000000496e-01,-5.697189400000000070e-01,-7.094074700000000400e-01,-7.503230499999999914e-01,-6.733270399999999878e-01,-9.801014099999999507e-01,-1.207113600000000009e+00,-1.181380199999999991e+00,-1.026396499999999934e+00,-1.299487599999999965e+00,-1.928882299999999939e+00,-1.907636099999999946e+00,-1.868825200000000075e+00,-1.990612400000000060e+00,-2.011635699999999805e+00,-2.402652199999999905e+00,-2.144031800000000043e+00,-1.661814600000000031e+00,-1.939357299999999951e+00,-1.872272500000000006e+00,-1.554691100000000104e+00,-1.301193899999999903e+00,-1.016450599999999982e+00,-9.792765399999999731e-01,-7.062545300000000470e-01,-3.033716100000000138e-01,-1.264632499999999993e-02,1.696729999999999905e-01,9.132965699999999465e-02,2.502804100000000087e-01,3.872652600000000001e-01,2.579291699999999854e-01,4.292919599999999725e-01,5.175119500000000539e-01,4.046752800000000261e-01,5.119819199999999793e-01,5.773285799999999801e-01,5.218925899999999896e-01,5.525622199999999928e-01,6.021393200000000334e-01,5.481752399999999525e-01,4.138524800000000226e-01,3.740408399999999856e-01,5.186644400000000044e-01,5.510181600000000346e-01,4.147772299999999968e-01,4.808006799999999803e-01,5.954352499999999715e-01,5.687371199999999849e-01,7.219690600000000513e-01,8.431281600000000154e-01,6.168265000000000553e-01,6.080177799999999522e-01,7.762998899999999924e-01,6.168212299999999981e-01,5.995204400000000433e-01,6.889260400000000173e-01,5.307273999999999603e-01,5.446206199999999997e-01,6.598197799999999669e-01,5.648553400000000391e-01,4.726342199999999938e-01,4.542043299999999895e-01,4.064930199999999827e-01,3.157259399999999827e-01,1.554754600000000098e-01,1.501237400000000055e-01,3.543919300000000216e-01,3.786925899999999956e-01,3.946299899999999861e-01,5.257821999999999774e-01,2.793479999999999852e-01,-6.965778400000000037e-02,2.754396099999999875e-02,1.530247499999999872e-01,4.223191099999999698e-02,1.342688499999999951e-01,2.961503799999999909e-01,6.293181999999999943e-02
3.280082599999999959e-01,1.210222200000000026e+00,2.597653400000000001e+00,2.210778499999999980e+00,1.621666400000000063e+00,-2.393210500000000074e-01,-1.598711599999999899e+00,-6.021364599999999845e-01,-8.660336999999999896e-02,2.658139099999999935e-02,-3.030494100000000190e-01,-3.724600800000000267e-01,-2.791298199999999730e-01,-9.494708099999999984e-01,-9.640862999999999516e-01,-9.548609399999999914e-01,-1.203295599999999910e+00,-1.340139299999999922e+00,-1.371507599999999938e+00,-1.173875199999999897e+00,-1.418955299999999919e+00,-1.559241199999999994e+00,-1.308441200000000082e+00,-1.812374799999999953e+00,-1.699133000000000004e+00,-1.504193099999999950e+00,-2.001629199999999997e+00,-1.857436899999999946e+00,-1.954318299999999953e+00,-1.716709100000000099e+00,-2.167545399999999844e+00,-1.674881099999999901e+00,-1.814564899999999925e+00,-1.507357199999999953e+00,-9.997038799999999892e-01,-1.049914299999999967e+00,-5.148477900000000274e-01,-2.983469599999999944e-01,1.288759200000000049e-01,3.794308900000000206e-01,4.746024300000000196e-01,6.064654600000000118e-01,1.035529499999999992e+00,9.076035999999999548e-01,1.042880400000000041e+00,9.198647599999999480e-01,1.140832099999999905e+00,8.501740599999999537e-01,7.868881399999999582e-01,1.015811599999999926e+00,7.808750700000000045e-01,8.010123799999999683e-01,6.562139299999999453e-01,6.961819000000000202e-01,6.779002100000000031e-01,9.015087400000000306e-01,6.549156499999999603e-01,8.144847800000000193e-01,8.591424699999999914e-01,6.834470099999999659e-01,6.402118900000000057e-01,7.917787899999999546e-01,5.601398600000000449e-01,6.339122600000000052e-01,7.720073899999999600e-01,4.196697699999999975e-01,6.347998400000000041e-01,5.357746100000000400e-01,3.212959300000000074e-01,4.825567800000000185e-01,5.763061400000000223e-01,2.899646599999999852e-01,6.897689599999999865e-01,8.555986599999999553e-01,7.565309399999999851e-01,8.601292200000000276e-01,7.238777400000000473e-01,4.458859000000000017e-01,5.209146900000000135e-01,5.971027500000000154e-01,4.158210499999999595e-03,1.887390100000000126e-01,3.583927900000000166e-01,-1.694840099999999905e-01,3.133602899999999858e-01,1.259911099999999895e-01,-4.611519399999999824e-02,9.980147200000000218e-02,-5.288849000000000328e-02,1.190555300000000066e-01,6.198898600000000286e-02,-6.012216900000000308e-02,-3.095293899999999876e-02,1.111159000000000018e-03,2.277181100000000014e-01,2.397095599999999882e-01
1.668206000000000078e+00,2.848173399999999855e+00,2.516977600000000148e+00,2.172772900000000007e+00,7.204670600000000480e-01,7.253757299999999963e-01,1.638601900000000056e+00,1.292903799999999936e+00,1.609565600000000041e+00,1.395034000000000107e+00,1.492802000000000018e-01,-3.332255499999999815e-01,-4.527819699999999781e-01,-7.850896699999999617e-01,-8.285329799999999745e-01,-8.265712899999999586e-01,-9.734967199999999821e-01,-1.170111499999999971e+00,-1.150549199999999939e+00,-1.257532199999999989e+00,-1.420353100000000035e+00,-1.484590000000000076e+00,-1.465784699999999940e+00,-1.377939299999999978e+00,-1.604248399999999908e+00,-1.775638599999999956e+00,-1.761526099999999984e+00,-2.080916199999999883e+00,-2.227107000000000170e+00,-1.957896000000000081e+00,-2.108952599999999844e+00,-1.894079999999999986e+00,-1.800322600000000106e+00,-1.464234999999999953e+00,-1.048059800000000097e+00,-8.951751799999999593e-01,-4.906990700000000150e-01,-1.731679900000000077e-02,2.034544100000000022e-01,2.788311199999999879e-01,6.750242400000000531e-01,6.551088600000000151e-01,6.804876199999999598e-01,7.190774699999999964e-01,7.201899999999999968e-01,6.560225800000000218e-01,5.360425300000000171e-01,6.683654300000000381e-01,6.861934600000000328e-01,5.590463100000000463e-01,5.608502199999999549e-01,6.596458499999999781e-01,7.094088600000000300e-01,6.154761100000000207e-01,6.312551699999999766e-01,5.674150900000000108e-01,4.007082900000000225e-01,4.570424200000000048e-01,5.083024900000000512e-01,4.117967699999999787e-01,4.005274500000000071e-01,3.618901299999999766e-01,2.679171100000000139e-01,3.217486800000000091e-01,2.626882799999999962e-01,2.258181200000000111e-01,2.566861200000000176e-01,1.465069300000000074e-01,1.234446700000000063e-01,1.056922899999999943e-01,1.960145600000000043e-01,6.434636000000000522e-02,8.059776000000000440e-02,3.332673600000000125e-01,2.929426800000000108e-01,3.826129099999999728e-01,6.815075999999999912e-01,6.150995599999999897e-01,3.269933500000000159e-01,1.654940000000000022e-01,9.622551999999999495e-02,1.838131399999999929e-02,-3.604900800000000044e-02,-2.268781699999999901e-02,-6.131277200000000149e-03,-1.432256500000000064e-02,-1.543646899999999988e-01,-1.780531200000000022e-02,-7.506262599999999861e-03,5.362463700000000277e-03,-2.659744600000000028e-02,-4.819208600000000203e-02,-3.234703600000000262e-02,-2.140536600000000067e-01,5.603087000000000345e-02,1.478891900000000037e-01
4.822300600000000159e-01,9.868321100000000401e-01,1.443767699999999987e+00,2.186428400000000050e+00,2.517539300000000146e+00,1.878654999999999964e+00,1.092686100000000105e+00,3.525748699999999847e-01,-2.938844299999999743e-01,-1.153882400000000030e-01,3.200875599999999932e-01,2.048404199999999953e-01,9.906004000000000198e-02,2.294555400000000134e-01,2.482326800000000111e-01,1.864197300000000057e-01,-1.892297099999999954e-01,-5.396003799999999906e-01,-4.573671699999999896e-01,-5.598551699999999576e-01,-6.803446399999999450e-01,-5.312081899999999690e-01,-5.570736600000000260e-01,-7.082879300000000100e-01,-7.925243199999999488e-01,-8.089249499999999760e-01,-8.925308699999999762e-01,-1.183525299999999891e+00,-1.392897599999999958e+00,-1.423826800000000059e+00,-1.653336799999999940e+00,-1.856352000000000002e+00,-1.870422900000000110e+00,-2.261442600000000080e+00,-2.453606999999999871e+00,-2.207414899999999847e+00,-2.257790700000000150e+00,-2.179425800000000191e+00,-1.963291099999999956e+00,-1.839902600000000055e+00,-1.523589300000000035e+00,-1.356155599999999906e+00,-1.018678900000000054e+00,-4.736822299999999819e-01,-3.446546400000000121e-01,-1.737559100000000134e-01,2.048220400000000108e-01,2.990426600000000157e-01,3.196994899999999751e-01,5.891393999999999798e-01,7.819931100000000468e-01,6.539130499999999957e-01,6.480164699999999556e-01,8.165529200000000154e-01,7.828183499999999961e-01,7.705081700000000478e-01,8.255325599999999708e-01,6.783814799999999812e-01,5.379237300000000443e-01,5.359471099999999488e-01,5.648951500000000125e-01,5.541468000000000504e-01,4.834151700000000051e-01,4.378762400000000277e-01,4.043035600000000063e-01,3.957553899999999847e-01,4.823498299999999794e-01,5.177146400000000037e-01,4.759864500000000054e-01,5.385806800000000338e-01,6.302748500000000531e-01,6.181445599999999541e-01,6.643432999999999700e-01,8.647142799999999463e-01,1.108790500000000012e+00,1.239030599999999982e+00,1.089969200000000082e+00,8.422273399999999910e-01,9.330190699999999504e-01,8.937238499999999863e-01,4.091343100000000010e-01,2.996923400000000015e-01,3.586833300000000224e-01,1.695516400000000035e-01,2.857609799999999978e-01,3.219520599999999844e-01,3.317287299999999856e-02,6.889404099999999614e-03,-5.738584299999999888e-02,-3.063323700000000205e-01,-6.741052999999999629e-02,2.251935599999999871e-01,6.938687999999999800e-02,5.897600100000000012e-02,2.071993099999999977e-01,1.331470200000000048e-01
2.748272099999999885e-01,4.810366799999999943e-01,9.192641400000000074e-01,1.538612700000000055e+00,2.046619499999999814e+00,2.247142699999999937e+00,1.881333600000000050e+00,1.223463500000000037e+00,5.810091400000000350e-01,-1.389552399999999938e-02,7.520963799999999533e-02,3.247223699999999824e-01,-9.983770000000000144e-02,-1.693475399999999909e-01,2.736826199999999997e-03,-6.821873400000000309e-02,-2.688526099999999919e-01,-8.745139400000000451e-01,-9.635397199999999884e-01,-6.392692399999999608e-01,-9.781777699999999465e-01,-1.072279699999999947e+00,-8.433482500000000215e-01,-1.158443399999999901e+00,-1.261008399999999918e+00,-1.186197100000000004e+00,-1.455212200000000067e+00,-1.692955299999999941e+00,-1.901505400000000012e+00,-1.681843999999999895e+00,-1.570979399999999915e+00,-2.016376600000000074e+00,-2.141853799999999808e+00,-2.026962600000000059e+00,-1.989680799999999916e+00,-1.815479000000000065e+00,-2.067358599999999935e+00,-2.174979200000000112e+00,-1.589711199999999991e+00,-1.372573499999999891e+00,-1.247755900000000029e+00,-8.812511899999999621e-01,-6.872475999999999585e-01,-4.021238899999999838e-01,-2.005963099999999999e-01,-7.159784199999999488e-02,3.161279699999999804e-02,8.036442700000000217e-02,2.128739799999999904e-01,3.354063999999999934e-01,4.774342500000000045e-01,5.382697300000000018e-01,4.898791900000000199e-01,5.179447499999999538e-01,5.322060100000000071e-01,4.841434299999999857e-01,4.895591899999999774e-01,5.108597499999999458e-01,4.238896099999999723e-01,4.954614099999999910e-01,7.047736000000000001e-01,5.608450400000000169e-01,4.395500399999999752e-01,5.818282099999999568e-01,6.136675799999999903e-01,6.375767500000000254e-01,6.663432500000000536e-01,6.342989199999999883e-01,6.503158599999999678e-01,7.074935300000000371e-01,7.619281500000000262e-01,7.552420499999999981e-01,7.846979699999999669e-01,9.191243999999999525e-01,9.609365500000000004e-01,9.145464399999999605e-01,9.970647900000000341e-01,1.021372699999999911e+00,8.307164200000000109e-01,7.542281199999999464e-01,7.399255799999999716e-01,5.329199300000000417e-01,4.423910500000000079e-01,5.065832599999999797e-01,4.478272099999999756e-01,4.282805700000000271e-01,4.373780800000000024e-01,3.422193000000000040e-01,3.803021400000000107e-01,3.682528800000000047e-01,2.536805100000000257e-01,2.928841099999999753e-01,2.981639600000000057e-01,3.171801000000000204e-01,4.230350700000000130e-01,2.615167400000000253e-01
-7.063045300000000415e-01,-2.261812699999999898e-01,2.161995200000000061e-01,-3.177265699999999859e-01,-6.489719200000000354e-01,-1.219349100000000075e+00,-1.524294999999999956e+00,-1.508060100000000014e+00,-1.550898899999999969e+00,-1.600453700000000090e+00,-1.689166799999999968e+00,-1.395393600000000012e+00,-1.470831299999999953e+00,-1.581769600000000109e+00,-1.308066200000000068e+00,-1.322037700000000093e+00,-1.320154199999999944e+00,-1.394580600000000059e+00,-1.238440900000000067e+00,-1.317983499999999975e+00,-1.428344199999999953e+00,-1.330318799999999912e+00,-1.359500799999999954e+00,-1.350540899999999933e+00,-1.449242499999999989e+00,-1.424894099999999941e+00,-1.299089600000000067e+00,-1.106606600000000107e+00,-9.707085800000000431e-01,-7.874697099999999894e-01,-4.047451599999999927e-01,-2.316290699999999925e-01,-6.775863199999999920e-02,1.449221499999999996e-01,4.225545600000000235e-01,5.340264200000000017e-01,3.575529599999999752e-01,5.282148300000000241e-01,4.617568000000000228e-01,3.635121599999999731e-01,3.135660000000000114e-01,-2.315342800000000020e-02,2.423184999999999922e-01,-2.396664399999999875e-03,7.962121500000000560e-03,2.518082599999999990e-02,-4.604107400000000128e-02,3.151917300000000033e-01,2.189609200000000033e-01,3.076639099999999849e-01,5.313859699999999853e-01,4.176063099999999806e-01,4.848206600000000144e-01,5.690518599999999649e-01,7.047075299999999709e-01,6.766684800000000166e-01,6.318692599999999882e-01,8.066543600000000147e-01,6.798500200000000548e-01,5.737944799999999956e-01,6.916955900000000268e-01,7.095152300000000523e-01,6.826067599999999791e-01,6.065385300000000202e-01,6.239364400000000366e-01,5.369895500000000377e-01,7.935276599999999680e-01,1.108089199999999996e+00,1.015476599999999952e+00,1.173739099999999924e+00,6.792567900000000547e-01,5.705974099999999716e-01,4.824283300000000163e-01,3.353238499999999789e-01,4.154970000000000052e-01,2.635305099999999956e-01,2.649258199999999785e-01,1.996487700000000032e-01,2.296774600000000000e-01,3.264010500000000259e-01,2.027821800000000063e-01,1.815319099999999908e-01,2.319263300000000139e-01,3.860980399999999757e-01,2.652662199999999970e-01,2.468996499999999983e-01,3.381671399999999772e-01,1.208873099999999978e-01,3.319699300000000242e-01,6.415899900000000544e-01,1.531394499999999992e+00,3.124839999999999840e+00,3.332052599999999920e+00,2.653740700000000174e+00,1.155384600000000095e+00,-3.668194200000000071e-01
9.875464600000000148e-01,2.813291099999999823e+00,3.850262799999999874e+00,2.379789099999999991e+00,1.699813699999999983e+00,7.857633499999999716e-02,-5.966711799999999677e-01,8.270188499999999721e-01,8.711957900000000254e-01,8.099088300000000240e-01,8.429710799999999837e-01,6.056129700000000282e-01,8.904288400000000270e-02,-5.921207499999999735e-01,-6.401880399999999582e-01,-5.838147299999999484e-01,-1.021813000000000082e+00,-8.724830900000000167e-01,-9.781804499999999791e-01,-1.088328900000000043e+00,-1.060964199999999913e+00,-1.233206199999999919e+00,-1.397379699999999891e+00,-1.420162200000000041e+00,-1.285414800000000080e+00,-1.619275299999999973e+00,-1.676742200000000071e+00,-1.501701799999999976e+00,-1.666900499999999896e+00,-1.855677199999999916e+00,-1.926867799999999908e+00,-1.527414300000000003e+00,-1.612327899999999925e+00,-1.661934699999999987e+00,-1.221450499999999995e+00,-1.031365599999999993e+00,-5.622271300000000194e-01,-1.409427199999999936e-01,-4.441541499999999976e-02,4.079019400000000184e-01,6.434400500000000411e-01,5.270059900000000352e-01,9.639179300000000339e-01,1.117306700000000097e+00,8.671494899999999673e-01,1.109900700000000073e+00,9.482219499999999801e-01,9.059799400000000391e-01,8.092990399999999696e-01,8.630134000000000416e-01,7.680084799999999934e-01,5.785923299999999880e-01,8.372735500000000330e-01,4.224356300000000064e-01,5.599906399999999840e-01,7.424654899999999502e-01,5.506756099999999821e-01,5.251134899999999606e-01,6.392484800000000078e-01,4.764758900000000130e-01,3.971896699999999947e-01,5.451333900000000510e-01,3.330331000000000263e-01,3.668392100000000267e-01,4.464715100000000159e-01,7.846681199999999690e-02,2.062751499999999905e-01,3.343009200000000014e-01,1.082343300000000036e-01,3.453834700000000049e-03,2.808062899999999931e-02,2.876920199999999928e-01,2.413142199999999959e-01,6.944902499999999756e-01,6.739326300000000325e-01,4.915948700000000171e-01,5.070639000000000118e-01,1.009859899999999977e-01,2.556272900000000070e-01,-8.015213699999999830e-02,-4.071048400000000234e-01,-1.713940399999999975e-01,-4.405347499999999750e-01,-3.206269600000000164e-01,-3.731297900000000167e-01,-4.254892699999999750e-01,-2.418946800000000008e-01,-6.914355800000000496e-01,-4.036413500000000099e-01,-2.938453699999999946e-01,-5.591783999999999644e-01,-1.943936199999999892e-01,-5.598842699999999617e-01,-7.063775799999999494e-01,-3.070768799999999965e-01,-2.224962799999999907e-01
5.011230300000000248e-01,7.291306300000000018e-01,8.337402299999999711e-01,1.255770499999999901e+00,2.001361600000000074e+00,2.504033199999999848e+00,2.454195299999999857e+00,2.220327300000000115e+00,2.122435299999999803e+00,1.916523600000000105e+00,1.382132899999999998e+00,7.354494799999999888e-01,2.208553799999999900e-01,-4.881731999999999738e-02,5.889328800000000197e-02,3.706418200000000107e-01,3.539252800000000088e-01,-5.693960900000000214e-02,-2.701494899999999921e-01,-3.028840400000000141e-02,1.839262899999999923e-01,3.414641699999999835e-02,-1.855186900000000139e-01,-1.769410999999999901e-01,-1.408856400000000064e-01,-3.382744599999999990e-01,-5.632792899999999880e-01,-5.318385199999999813e-01,-3.990279299999999751e-01,-4.708545599999999776e-01,-6.988801500000000333e-01,-8.642197600000000035e-01,-9.254385200000000422e-01,-9.204064199999999474e-01,-8.817778699999999636e-01,-9.432366199999999701e-01,-1.201581900000000092e+00,-1.469527100000000086e+00,-1.496397999999999895e+00,-1.412495700000000021e+00,-1.567809999999999926e+00,-1.912090400000000079e+00,-1.997244199999999914e+00,-1.738899299999999926e+00,-1.581814800000000076e+00,-1.716598000000000068e+00,-1.797958799999999968e+00,-1.629614200000000013e+00,-1.450983200000000028e+00,-1.427837100000000081e+00,-1.423426700000000045e+00,-1.312423399999999907e+00,-1.132547299999999924e+00,-9.296411100000000483e-01,-7.179657900000000481e-01,-5.386534200000000494e-01,-4.170161600000000246e-01,-2.945191600000000021e-01,-1.341776500000000094e-01,-2.979926700000000081e-02,-4.716171400000000041e-02,-5.970636399999999788e-02,8.757477599999999307e-02,2.959705200000000147e-01,3.572715900000000278e-01,3.052984100000000200e-01,3.596796999999999911e-01,5.363114700000000123e-01,6.059855499999999839e-01,5.214135699999999929e-01,4.924846299999999788e-01,5.638442099999999568e-01,5.486995000000000067e-01,4.597754499999999744e-01,5.321038300000000554e-01,7.530751700000000159e-01,8.465178700000000056e-01,7.551360999999999768e-01,6.997680099999999959e-01,7.367640600000000539e-01,6.596287100000000070e-01,4.588968299999999778e-01,4.242779199999999751e-01,5.751472300000000093e-01,5.591878099999999518e-01,3.532843600000000195e-01,3.580163000000000095e-01,6.058888199999999946e-01,7.109626599999999685e-01,6.197102300000000286e-01,5.649300900000000514e-01,5.561136700000000044e-01,5.618189599999999784e-01,6.581866199999999445e-01,6.397109699999999899e-01,2.426179599999999936e-01
2.248790200000000183e+00,3.535038399999999914e+00,2.888273700000000055e+00,2.720919700000000052e+00,8.621201699999999635e-01,3.755770999999999971e-01,1.639203799999999989e+00,1.283124099999999990e+00,1.157071100000000019e+00,1.185072099999999962e+00,5.953769399999999656e-01,-5.150870999999999922e-02,-4.338088800000000078e-01,-3.791660099999999978e-01,-5.231831599999999804e-01,-7.183040099999999928e-01,-7.135661199999999704e-01,-8.204063099999999720e-01,-8.596947400000000128e-01,-1.007710799999999907e+00,-1.134555200000000097e+00,-1.071455700000000011e+00,-1.127762300000000106e+00,-1.315961500000000006e+00,-1.501369299999999907e+00,-1.505195099999999897e+00,-1.653858599999999957e+00,-1.880902499999999922e+00,-1.810099099999999961e+00,-1.881425399999999915e+00,-1.986411200000000044e+00,-1.980298600000000020e+00,-1.767725200000000108e+00,-1.431655899999999981e+00,-1.248946799999999913e+00,-9.245140699999999656e-01,-4.976337900000000203e-01,-1.512740700000000105e-01,1.964381099999999991e-01,3.614569100000000201e-01,5.248161799999999655e-01,7.818521099999999890e-01,8.557499100000000025e-01,8.680045699999999753e-01,8.262450799999999651e-01,7.807801500000000061e-01,7.251876299999999720e-01,6.515946200000000132e-01,6.555006700000000075e-01,5.249537399999999465e-01,5.687512700000000310e-01,7.200559199999999604e-01,5.729602999999999779e-01,5.008414100000000424e-01,4.953562899999999769e-01,5.148991899999999511e-01,5.163807000000000258e-01,4.059820599999999780e-01,4.221432700000000149e-01,4.107917700000000005e-01,3.194716000000000222e-01,3.164789399999999864e-01,3.074085300000000132e-01,2.523021899999999818e-01,9.881720800000000360e-02,5.896597399999999739e-02,1.411274799999999996e-01,7.443868100000000654e-02,1.057130499999999959e-02,1.800854500000000080e-02,6.032822000000000184e-02,-5.283538200000000018e-03,-3.999276200000000114e-02,8.505204199999999437e-02,2.321452800000000094e-01,3.848487700000000067e-01,4.028991199999999995e-01,3.935561599999999882e-01,2.403262899999999980e-01,5.310383700000000096e-02,-1.545935300000000033e-02,-1.951025299999999962e-01,-1.924928399999999984e-01,-3.495356399999999808e-01,-4.344440299999999811e-01,-2.305302300000000026e-01,-2.795932400000000206e-01,-3.991296500000000025e-01,-3.563921199999999789e-01,-2.518543300000000151e-01,-3.171709699999999965e-01,-3.516905599999999854e-01,-2.522244399999999942e-01,-2.754384000000000277e-01,-2.913466200000000006e-01,-2.050848500000000130e-01
3.193091100000000071e-01,2.091695399999999871e+00,3.443776300000000123e+00,2.233016600000000018e+00,2.302413899999999902e+00,6.216076900000000460e-01,-8.866644799999999771e-01,2.480810400000000027e-01,4.988018499999999911e-01,-9.800522400000000189e-02,-3.076577700000000110e-02,3.447202200000000216e-01,-3.898717400000000222e-01,-6.201236799999999549e-01,-1.045304699999999976e+00,-1.041043799999999964e+00,-6.186968299999999754e-01,-1.178405699999999889e+00,-1.197520600000000046e+00,-1.088061900000000026e+00,-1.381653100000000078e+00,-1.297184499999999963e+00,-1.324930299999999894e+00,-1.501298000000000021e+00,-1.661646799999999979e+00,-1.833388400000000029e+00,-1.814170599999999967e+00,-1.674116900000000019e+00,-1.858804700000000087e+00,-1.998634100000000080e+00,-2.045569899999999830e+00,-1.896770499999999915e+00,-1.634395499999999890e+00,-1.342989299999999941e+00,-1.165669400000000078e+00,-9.072224100000000346e-01,-5.020324999999999926e-01,-1.439110999999999863e-01,2.030609200000000059e-01,6.738644000000000300e-01,7.046367300000000444e-01,6.368684700000000198e-01,1.116656499999999941e+00,6.695745400000000513e-01,1.139199099999999909e+00,1.243291200000000041e+00,7.779805800000000326e-01,9.366566699999999690e-01,7.071341300000000274e-01,8.886894600000000422e-01,9.200951000000000546e-01,7.458097299999999485e-01,6.580563499999999566e-01,4.053932000000000091e-01,8.296627100000000254e-01,7.484054100000000487e-01,5.809531999999999474e-01,6.270838100000000193e-01,4.805579099999999770e-01,5.655919299999999650e-01,6.678783999999999832e-01,5.688555199999999479e-01,4.509378700000000184e-01,4.585794999999999733e-01,3.809263800000000089e-01,3.495089299999999954e-01,3.987912599999999808e-01,2.280094199999999904e-01,1.428532799999999992e-01,1.098377299999999945e-01,2.042244500000000018e-01,1.018595600000000018e-01,2.701687799999999973e-01,4.545889699999999811e-01,6.895887200000000439e-01,9.295339400000000030e-01,5.057099299999999742e-01,3.637632700000000274e-01,4.469933099999999770e-01,2.901750799999999741e-01,4.029840600000000189e-02,-2.025365699999999991e-01,-8.344626500000000557e-02,-1.586346200000000040e-01,-4.254289399999999777e-02,-1.934275500000000036e-01,-1.606420600000000032e-01,-2.079150499999999901e-01,-1.657768400000000086e-01,-1.860218100000000097e-01,-1.840031900000000109e-01,-2.605305000000000121e-02,-2.775148900000000141e-01,-1.284558100000000036e-01,-4.273183700000000168e-02,-1.771718200000000076e-01
6.303957000000000033e-01,2.191977300000000017e+00,3.520900399999999930e+00,2.730038799999999988e+00,2.138940100000000122e+00,5.607269499999999463e-01,-6.785315200000000546e-01,7.374546800000000291e-01,1.128454099999999904e+00,6.162149599999999783e-01,9.579666300000000412e-01,8.474689499999999986e-01,-4.297853800000000189e-03,-4.907766299999999915e-01,-5.365784099999999501e-01,-7.562698300000000318e-01,-8.623726999999999920e-01,-9.221794199999999719e-01,-9.172438099999999928e-01,-1.033961700000000095e+00,-1.088873399999999991e+00,-1.107553500000000080e+00,-1.177252299999999918e+00,-1.336644900000000025e+00,-1.562935699999999928e+00,-1.441686599999999929e+00,-1.525004699999999991e+00,-1.807126999999999928e+00,-1.928467500000000001e+00,-1.949675800000000070e+00,-1.819808000000000092e+00,-1.757956300000000027e+00,-1.731672700000000065e+00,-1.674876000000000031e+00,-1.301964200000000016e+00,-1.040164300000000042e+00,-7.638732000000000300e-01,-3.410454800000000120e-01,-1.628001400000000098e-01,2.401259500000000047e-01,3.124207700000000143e-01,5.364695400000000225e-01,1.089520299999999997e+00,8.327879200000000148e-01,8.190063699999999836e-01,9.021220399999999584e-01,7.919350800000000135e-01,8.896317700000000439e-01,7.724685399999999813e-01,7.469911999999999663e-01,6.654033900000000390e-01,5.201320799999999966e-01,7.012036999999999853e-01,8.264264599999999739e-01,6.650913499999999701e-01,4.230882200000000148e-01,6.834671799999999520e-01,7.785762000000000516e-01,3.647656400000000021e-01,6.574099899999999996e-01,9.088110900000000436e-01,7.274298599999999837e-01,4.116390999999999800e-01,2.415113100000000068e-01,4.159121900000000149e-01,3.238783100000000026e-01,2.755376500000000228e-01,2.040927899999999962e-01,2.225480099999999906e-01,3.169047899999999918e-01,8.449712600000000573e-02,3.533422800000000086e-01,3.765286299999999753e-01,6.598232800000000120e-01,8.162024799999999525e-01,6.801271300000000242e-01,3.102260199999999912e-01,-2.062339699999999887e-01,3.020826899999999940e-02,9.401515200000000461e-02,-1.008238899999999993e-01,-2.888867399999999752e-01,-2.661554099999999812e-01,-1.519287699999999908e-01,-4.778374000000000232e-01,-2.249614500000000072e-01,-2.726475899999999952e-01,-4.840679999999999983e-01,-5.166314400000000528e-01,-5.743041899999999922e-01,-1.411563000000000123e-01,-4.479598499999999928e-01,-7.380194199999999816e-01,-3.986049600000000082e-01,-4.886891099999999821e-01,-2.323154299999999894e-01
1.088076499999999891e+00,1.564039900000000038e+00,1.368890200000000057e+00,1.250157299999999916e+00,1.491498200000000107e+00,1.682589099999999949e+00,1.226950699999999950e+00,3.439690799999999826e-01,-3.353168200000000154e-01,-7.293195599999999779e-01,-9.497198300000000426e-01,-1.015928500000000012e+00,-1.066042799999999957e+00,-1.163375400000000059e+00,-1.207466099999999987e+00,-1.234711600000000020e+00,-1.324841600000000064e+00,-1.364944500000000005e+00,-1.331229199999999890e+00,-1.356371999999999911e+00,-1.370511999999999952e+00,-1.333924899999999969e+00,-1.378162200000000004e+00,-1.395286100000000085e+00,-1.400958900000000007e+00,-1.492014799999999974e+00,-1.502983900000000039e+00,-1.553505300000000089e+00,-1.598863900000000005e+00,-1.464568300000000045e+00,-1.516410999999999953e+00,-1.645834699999999984e+00,-1.507523100000000005e+00,-1.400291699999999917e+00,-1.386624099999999915e+00,-1.224092600000000086e+00,-1.035595899999999903e+00,-8.888949699999999510e-01,-6.708670700000000098e-01,-5.003590300000000379e-01,-3.048699100000000217e-01,-4.242597900000000255e-02,1.147635399999999938e-02,1.014934499999999989e-01,2.583980499999999902e-01,1.373443000000000025e-01,1.031845599999999946e-01,2.594284700000000221e-01,2.888449599999999839e-01,3.756122900000000153e-01,4.570600699999999850e-01,2.460833799999999905e-01,1.670572999999999919e-01,3.410717400000000121e-01,2.622999100000000250e-01,2.204816599999999960e-01,3.649622499999999881e-01,2.883525499999999853e-01,2.882791599999999788e-01,4.027272599999999758e-01,3.649622499999999881e-01,4.310890099999999947e-01,4.769540700000000077e-01,3.400824800000000203e-01,4.867499200000000026e-01,7.408759700000000503e-01,6.066222599999999687e-01,6.453155600000000103e-01,8.825598300000000451e-01,7.057383699999999482e-01,5.606973600000000335e-01,5.381513999999999465e-01,4.258560900000000204e-01,5.963962999999999903e-01,7.793632400000000127e-01,7.328110899999999983e-01,6.237610399999999888e-01,4.906323799999999791e-01,4.394491600000000053e-01,2.548838500000000229e-01,1.975042100000000134e-01,4.007189600000000129e-01,2.490440499999999890e-01,2.096213899999999908e-01,3.649622499999999881e-01,1.298444199999999882e-01,2.443221499999999879e-01,5.852536200000000299e-01,5.476437499999999847e-01,1.093301899999999938e+00,2.150795500000000082e+00,2.385065800000000014e+00,1.993872300000000042e+00,1.760286299999999970e+00,1.269217800000000063e+00,3.991033399999999731e-01
5.264121000000000494e-01,1.007902400000000087e+00,1.789894400000000108e+00,2.358013899999999996e+00,2.301473699999999845e+00,2.087024599999999896e+00,1.967556400000000094e+00,1.514054699999999976e+00,7.504538899999999568e-01,1.153996699999999959e-01,-2.278353599999999868e-01,-2.011124699999999876e-01,1.406027399999999934e-03,-9.039341600000000421e-02,-3.634893699999999783e-01,-4.349521900000000163e-01,-4.216363599999999878e-01,-3.839017299999999966e-01,-2.436955299999999935e-01,-2.933043200000000073e-01,-5.989781400000000477e-01,-7.923975599999999453e-01,-7.944099199999999916e-01,-7.422329300000000130e-01,-7.006149400000000194e-01,-8.414590699999999757e-01,-1.111548299999999934e+00,-1.189313999999999982e+00,-1.172079000000000093e+00,-1.332192100000000101e+00,-1.512559800000000010e+00,-1.560419000000000000e+00,-1.629478100000000040e+00,-1.753626200000000024e+00,-1.815287499999999943e+00,-1.817194500000000046e+00,-1.818364099999999928e+00,-1.830731799999999909e+00,-1.810059599999999991e+00,-1.699104799999999971e+00,-1.545770000000000088e+00,-1.456666199999999911e+00,-1.436545399999999972e+00,-1.409504599999999996e+00,-1.261815399999999920e+00,-9.144106300000000020e-01,-5.265730499999999870e-01,-3.964439200000000052e-01,-5.014670700000000148e-01,-4.502882799999999852e-01,-1.314659800000000101e-01,6.968573799999999707e-02,4.505204499999999890e-02,1.248377100000000045e-01,2.629453400000000274e-01,2.428135999999999906e-01,3.090242000000000266e-01,4.591845999999999983e-01,2.989448499999999842e-01,9.662274599999999547e-02,3.210592600000000130e-01,5.511783099999999491e-01,3.560715700000000039e-01,1.953636699999999893e-01,4.152774900000000269e-01,5.729075999999999613e-01,4.117236799999999808e-01,3.306571300000000213e-01,4.535051199999999838e-01,4.586406000000000094e-01,3.988230099999999778e-01,4.940149999999999819e-01,6.076585199999999798e-01,6.318939900000000165e-01,5.952374499999999458e-01,5.327466299999999988e-01,6.044375800000000298e-01,6.878990099999999774e-01,5.460873899999999503e-01,5.801400500000000182e-01,9.405462100000000492e-01,1.017477500000000035e+00,8.887085599999999808e-01,1.029046899999999987e+00,1.039137100000000036e+00,7.788739300000000476e-01,7.795606999999999953e-01,8.512108200000000346e-01,6.595561100000000287e-01,6.312744999999999607e-01,8.308146299999999984e-01,8.270937600000000112e-01,7.399126599999999998e-01,8.240938300000000272e-01,8.069386200000000509e-01,4.950512400000000035e-01
-3.680801699999999843e-01,-6.219835799999999804e-01,-6.014172700000000038e-01,-6.282892799999999500e-01,-6.114434300000000100e-01,-3.925719699999999923e-01,-3.227416799999999752e-01,-5.791164699999999943e-01,-8.964881500000000392e-01,-9.948451999999999851e-01,-8.109644099999999689e-01,-7.424549299999999574e-01,-1.015070099999999975e+00,-1.073135399999999962e+00,-8.563810200000000483e-01,-1.093095399999999939e+00,-1.514501099999999933e+00,-1.394172500000000037e+00,-1.190918399999999933e+00,-1.541088800000000036e+00,-1.886660199999999898e+00,-1.760760899999999962e+00,-1.916579000000000033e+00,-2.076817099999999972e+00,-1.735540499999999930e+00,-1.918452999999999964e+00,-2.197439500000000212e+00,-1.757871100000000020e+00,-1.519040299999999899e+00,-1.585452000000000083e+00,-1.394457800000000081e+00,-1.003314999999999957e+00,-6.906748000000000332e-01,-4.888824299999999790e-01,-1.174000399999999972e-01,2.520502800000000154e-01,1.533490000000000131e-01,1.398518300000000103e-01,5.504617800000000116e-01,5.473181200000000191e-01,3.190954799999999869e-01,5.085091099999999864e-01,6.244972399999999535e-01,5.973439600000000071e-01,6.148210499999999801e-01,4.797053800000000146e-01,4.692132700000000156e-01,6.392053599999999447e-01,4.906666800000000217e-01,3.388896000000000130e-01,5.116852800000000201e-01,5.829770899999999756e-01,5.013652400000000453e-01,4.455290499999999820e-01,4.903106700000000040e-01,5.706433199999999539e-01,5.494418599999999486e-01,6.226833999999999980e-01,7.037838100000000097e-01,7.074310299999999607e-01,8.365814099999999698e-01,9.767109699999999561e-01,1.044707599999999958e+00,1.100516499999999898e+00,1.187148799999999893e+00,1.285005900000000034e+00,1.250414600000000043e+00,1.165926500000000088e+00,1.023634300000000108e+00,8.108530400000000249e-01,6.914577499999999821e-01,5.694812500000000499e-01,5.894174199999999697e-01,7.034838100000000427e-01,6.820481800000000039e-01,5.981037799999999738e-01,2.366001100000000024e-01,1.139817100000000000e-01,3.949241900000000083e-01,3.485384599999999944e-01,3.897086399999999951e-01,4.565444100000000116e-01,1.536562499999999942e-01,1.811786400000000019e-01,3.664637399999999823e-01,2.983531799999999956e-01,5.568643800000000477e-01,9.689403100000000268e-01,1.354753300000000049e+00,2.190150899999999901e+00,2.465477200000000035e+00,1.646662000000000070e+00,9.219424600000000192e-01,2.701959299999999731e-01,-4.906401599999999918e-01,-4.525132800000000177e-01
8.725314000000000680e-02,1.252047700000000097e+00,1.970673399999999909e+00,1.736905399999999933e+00,1.394207900000000055e+00,-2.809145900000000196e-01,-3.611177199999999754e-01,8.225035400000000330e-01,5.791499499999999689e-02,1.946854099999999893e-02,2.184925000000000062e-01,-6.881617599999999557e-01,-9.354571400000000203e-01,-9.901087699999999714e-01,-1.086624800000000057e+00,-1.152811199999999925e+00,-1.242148599999999936e+00,-1.297863900000000070e+00,-1.314573400000000003e+00,-1.354939700000000080e+00,-1.475326099999999974e+00,-1.492317600000000022e+00,-1.528403500000000026e+00,-1.694323299999999977e+00,-1.782054699999999992e+00,-1.794433100000000003e+00,-1.874779699999999938e+00,-2.025017099999999903e+00,-2.011048000000000169e+00,-2.013947700000000118e+00,-2.166830700000000220e+00,-2.096887800000000190e+00,-1.847223499999999907e+00,-1.756375400000000031e+00,-1.533870300000000020e+00,-1.144207999999999892e+00,-8.035952800000000229e-01,-4.301941300000000079e-01,-1.221146899999999980e-01,1.894290799999999997e-01,4.492384999999999851e-01,5.102383200000000230e-01,6.491228799999999577e-01,7.464429700000000389e-01,6.556834299999999560e-01,5.877700300000000544e-01,6.087914399999999615e-01,6.603669399999999579e-01,4.215134500000000117e-01,4.265440400000000132e-01,6.048958599999999519e-01,5.218237300000000412e-01,5.714112999999999554e-01,5.836718400000000528e-01,5.761172700000000146e-01,5.877672299999999739e-01,6.338353199999999799e-01,5.802317200000000064e-01,4.944998899999999975e-01,4.559573599999999782e-01,5.447378299999999784e-01,5.259243399999999902e-01,3.821458200000000249e-01,4.397667399999999893e-01,5.271161399999999553e-01,5.014076699999999720e-01,4.195356700000000272e-01,3.813036799999999782e-01,4.218003100000000116e-01,3.807581500000000174e-01,4.410291599999999756e-01,5.504277899999999724e-01,4.637142100000000156e-01,4.280074099999999770e-01,7.251222699999999577e-01,8.600515899999999769e-01,1.008693999999999980e+00,1.024386800000000042e+00,8.648599700000000334e-01,8.781517300000000192e-01,6.902760900000000088e-01,6.367950199999999894e-01,7.027112699999999990e-01,5.550591200000000169e-01,3.456362099999999993e-01,5.550241900000000284e-01,7.403529800000000494e-01,4.495229099999999978e-01,4.783137599999999767e-01,5.683538099999999593e-01,6.543788799999999961e-01,5.308243799999999846e-01,6.406497799999999465e-01,7.391785199999999501e-01,5.196738100000000138e-01,6.471601799999999738e-01
4.704117800000000016e-01,1.174848799999999915e+00,2.221478600000000192e+00,3.903860900000000189e+00,2.787998700000000163e+00,1.008732299999999915e+00,-5.859668599999999783e-01,-1.114816999999999947e+00,-1.251950900000000089e-01,1.170406699999999994e-01,2.017985800000000052e-01,-3.859862900000000097e-01,-2.084667199999999943e-01,2.584482200000000063e-01,-2.934631200000000217e-01,-1.004772399999999954e-01,-4.466191899999999992e-01,-9.410121700000000367e-01,-7.132663799999999776e-01,-8.075843799999999906e-01,-9.597632299999999672e-01,-1.023028700000000013e+00,-1.207655600000000051e+00,-1.241056399999999948e+00,-1.335513100000000009e+00,-1.521372500000000016e+00,-1.557603199999999966e+00,-1.576611500000000055e+00,-1.734849700000000050e+00,-1.956903199999999954e+00,-1.729560900000000068e+00,-2.098883400000000066e+00,-1.714850900000000067e+00,-1.775127099999999958e+00,-1.674448799999999959e+00,-1.330791099999999894e+00,-1.273765599999999942e+00,-6.654805099999999696e-01,-6.921214300000000375e-01,-2.527611599999999847e-01,7.772465200000000518e-02,4.161385000000000084e-02,4.752309900000000198e-01,8.039196800000000254e-01,9.185026200000000474e-01,1.107480599999999926e+00,7.758052600000000520e-01,1.052794000000000008e+00,1.012011900000000075e+00,7.244378299999999493e-01,9.548358399999999913e-01,6.382035400000000136e-01,8.032131599999999816e-01,8.086549200000000548e-01,3.504874700000000232e-01,5.930813200000000229e-01,8.139385099999999484e-01,6.389272499999999466e-01,4.619292600000000082e-01,1.395024299999999995e+00,2.407977199999999929e-01,5.893594800000000189e-02,8.017228899999999658e-01,6.067496599999999685e-02,5.630115300000000378e-01,3.852335199999999960e-01,1.092344700000000002e-01,4.703460400000000208e-01,1.664158199999999921e-01,1.877896500000000024e-01,4.310817699999999753e-01,3.340817999999999843e-01,3.068346100000000076e-01,8.099511299999999636e-01,1.152222599999999986e+00,5.408317999999999737e-01,9.057074499999999695e-01,7.370315600000000300e-01,5.585356400000000138e-02,2.059101899999999929e-01,-1.573679799999999976e-02,9.097472199999999398e-02,-2.215929600000000055e-01,-2.804552000000000156e-01,-4.483514499999999847e-01,-4.101777000000000201e-02,3.721425099999999681e-02,-1.919634899999999866e-01,-3.312567200000000045e-01,-5.707169000000000131e-02,-4.421866299999999833e-02,-2.130069500000000005e-01,-1.471387100000000059e-01,-1.460294099999999984e-01,8.634313799999999983e-02,-1.477945300000000073e-01
1.351063300000000078e+00,2.825347499999999901e+00,2.640538700000000016e+00,1.218597200000000047e+00,-5.674181699999999995e-02,1.196952500000000086e+00,7.246815800000000474e-01,9.666516299999999839e-01,5.498241200000000273e-01,-9.886032500000000445e-01,-1.089661200000000107e+00,-1.379646699999999893e+00,-1.493300599999999978e+00,-1.535886400000000096e+00,-1.608579399999999993e+00,-1.797936399999999990e+00,-1.871387899999999993e+00,-1.808414600000000094e+00,-1.963441100000000050e+00,-1.867452099999999948e+00,-1.972518400000000005e+00,-1.974002999999999952e+00,-1.811857700000000015e+00,-1.776092900000000085e+00,-1.658481899999999953e+00,-1.579092799999999963e+00,-1.208955400000000013e+00,-9.565179799999999899e-01,-5.789319200000000443e-01,9.140739900000000029e-03,4.139337900000000237e-01,7.969359599999999988e-01,1.153269799999999901e+00,1.346629599999999982e+00,1.580598100000000006e+00,1.657908399999999949e+00,1.570600400000000008e+00,1.435705199999999904e+00,1.371004499999999959e+00,1.187334499999999959e+00,9.751589499999999688e-01,9.066246700000000214e-01,8.063110199999999894e-01,7.969658299999999862e-01,6.069367500000000248e-01,6.440960700000000205e-01,4.363884599999999780e-01,4.173406000000000060e-01,3.973282100000000150e-01,2.777480600000000188e-01,3.563614999999999977e-01,2.235375300000000121e-01,2.188779999999999892e-01,2.164507300000000078e-01,2.262812600000000118e-01,5.174936900000000339e-02,5.749023400000000117e-02,1.405942299999999867e-01,8.130460699999999749e-03,-1.338251600000000055e-02,4.268517799999999723e-02,6.206460500000000186e-02,-5.797934800000000000e-02,-5.566183999999999715e-02,6.263102900000000473e-02,-1.510168199999999961e-01,1.642272900000000049e-02,3.286513600000000312e-02,-1.421216800000000002e-01,-4.395471299999999942e-02,1.950220699999999927e-03,-2.323986399999999897e-02,-4.399257499999999904e-02,2.825118600000000105e-02,-3.734024799999999950e-02,-1.115631299999999930e-02,4.118680799999999836e-03,6.236076499999999856e-03,2.272909899999999983e-01,3.790190500000000240e-01,4.050621600000000044e-01,1.995188200000000134e-01,2.916841600000000256e-01,-2.779943199999999892e-02,-1.986852500000000077e-01,-1.707381099999999985e-01,-2.844625100000000018e-01,-1.506143699999999974e-01,-2.620041499999999912e-01,-2.224240600000000068e-01,-2.717830800000000102e-01,-6.516795499999999963e-02,-1.539940399999999987e-01,-9.954542500000000682e-02,-7.225471799999999556e-02,1.593297600000000147e-02
4.752761899999999873e-01,1.343113100000000060e+00,2.784831699999999799e+00,2.887770800000000193e+00,1.550017399999999990e+00,-4.053895399999999927e-01,-2.436819000000000138e-02,1.056572199999999961e+00,7.647211600000000109e-01,1.000310699999999997e+00,6.189236700000000369e-01,-2.631021499999999791e-01,-5.727057700000000029e-01,-6.838092500000000351e-01,-8.552861699999999567e-01,-8.718182199999999771e-01,-9.746308500000000485e-01,-1.068031600000000081e+00,-1.004841099999999932e+00,-1.156490299999999971e+00,-1.220693400000000040e+00,-1.306733600000000051e+00,-1.444895199999999935e+00,-1.451108400000000076e+00,-1.662703999999999960e+00,-1.753588600000000053e+00,-1.755749999999999922e+00,-1.927027199999999940e+00,-2.073282700000000034e+00,-2.130467900000000192e+00,-2.162592300000000023e+00,-2.170221199999999850e+00,-2.014310800000000068e+00,-1.734882700000000000e+00,-1.472014500000000004e+00,-1.119517899999999955e+00,-6.785504599999999664e-01,-2.460532699999999906e-01,1.724274299999999926e-01,4.875163699999999767e-01,7.221937899999999466e-01,8.789630699999999575e-01,8.576966700000000499e-01,8.946971599999999913e-01,9.304581600000000341e-01,7.477576099999999615e-01,6.761507799999999513e-01,7.157303400000000204e-01,6.937763399999999914e-01,6.505626899999999990e-01,6.560082499999999595e-01,6.973741500000000260e-01,7.220686800000000183e-01,7.448075600000000351e-01,6.891005999999999521e-01,6.817033399999999910e-01,7.052920200000000195e-01,6.720897399999999910e-01,6.661166899999999558e-01,6.066252800000000445e-01,6.866178400000000348e-01,5.390645699999999652e-01,4.744420799999999883e-01,5.598446700000000442e-01,4.171655200000000119e-01,4.337255500000000152e-01,4.007905999999999969e-01,3.219606199999999752e-01,3.497854699999999872e-01,3.354309699999999950e-01,2.277057799999999965e-01,1.936701899999999921e-01,2.274222700000000097e-01,1.755190299999999926e-01,3.475082099999999841e-01,6.197817100000000412e-01,6.784657800000000183e-01,5.676914299999999969e-01,4.522354299999999938e-01,3.966564000000000201e-01,2.191256199999999932e-01,4.241751600000000233e-02,8.899572399999999828e-03,3.596578999999999748e-02,-6.224854199999999699e-02,-9.953184399999999432e-02,4.216041999999999706e-02,-5.185713100000000075e-02,-6.782824199999999693e-02,1.016975399999999960e-02,-1.926355399999999871e-02,-5.795154300000000119e-02,-7.776208199999999626e-02,7.563836999999999644e-02,8.057849100000000209e-02,-2.978308199999999892e-02
6.692266000000000048e-01,6.401633599999999591e-01,3.381579100000000060e-01,2.853108100000000258e-01,-1.312668100000000115e-01,-2.882739400000000063e-01,-3.378963099999999775e-01,-7.775462499999999944e-01,-7.241158100000000264e-01,-7.089112699999999823e-01,-9.008317700000000317e-01,-9.268163099999999766e-01,-1.206166000000000071e+00,-1.204327699999999890e+00,-1.290081599999999939e+00,-1.492625700000000055e+00,-1.469542300000000079e+00,-1.620257499999999906e+00,-1.964180199999999932e+00,-2.140537000000000134e+00,-2.235578499999999913e+00,-2.191234800000000149e+00,-2.419061199999999801e+00,-2.383350099999999916e+00,-2.335281399999999952e+00,-2.409129599999999982e+00,-1.728079399999999932e+00,-1.508118000000000070e+00,-1.136700100000000102e+00,-5.967909599999999815e-01,-4.252844599999999753e-01,4.913716700000000243e-02,3.393353700000000250e-01,5.951182999999999890e-01,8.145613900000000518e-01,5.134723700000000113e-01,7.409388999999999559e-01,8.262815500000000313e-01,5.216390400000000538e-01,6.954151800000000216e-01,6.417393500000000417e-01,5.767862999999999740e-01,5.816531600000000024e-01,6.270132000000000483e-01,6.400516299999999825e-01,6.336032799999999909e-01,4.519568299999999761e-01,7.550776500000000446e-01,6.408795800000000042e-01,5.253824999999999745e-01,6.657850400000000501e-01,4.251726299999999958e-01,5.696124599999999871e-01,6.377683400000000447e-01,4.564245599999999792e-01,1.815783199999999875e-01,4.789490499999999873e-01,4.642535099999999804e-01,3.711286500000000044e-01,5.709008800000000550e-01,1.588253199999999921e-01,5.223864999999999759e-01,5.668416400000000355e-01,6.107996899999999785e-02,4.744543900000000036e-01,3.493324899999999955e-01,2.423789000000000082e-01,6.035702600000000251e-01,6.105467900000000059e-01,7.813873500000000361e-01,1.011704600000000065e+00,5.754147600000000251e-01,3.385727900000000123e-01,6.034176999999999458e-01,2.955411000000000010e-01,2.115446400000000060e-01,4.184009699999999832e-01,8.850341800000000037e-02,1.817174300000000131e-01,3.343472900000000192e-01,2.767364699999999914e-02,2.940131200000000167e-01,3.294896800000000070e-01,-3.062946999999999892e-02,3.824310300000000051e-01,2.203280099999999908e-01,2.102464400000000067e-01,1.592300199999999999e-01,2.720553700000000186e-01,4.107592600000000149e-01,1.062157800000000041e+00,2.542767200000000116e+00,2.192194199999999871e+00,1.547498700000000005e+00,9.029939799999999739e-01,-3.256672299999999742e-01
1.194928200000000107e+00,2.190797100000000164e+00,2.443274499999999794e+00,2.000790900000000150e+00,1.004988599999999899e+00,1.829855900000000035e-01,8.416144800000000536e-01,1.315861900000000029e+00,1.080809200000000025e+00,1.348972000000000060e+00,1.147413999999999934e+00,3.179404399999999908e-01,-3.956757200000000085e-01,-5.229533899999999624e-01,-5.880057499999999937e-01,-7.306871799999999917e-01,-8.104487999999999692e-01,-8.968885399999999564e-01,-9.689338600000000357e-01,-1.161673799999999979e+00,-1.222513100000000019e+00,-1.284079299999999924e+00,-1.471845499999999918e+00,-1.661310999999999982e+00,-1.944171899999999953e+00,-2.039104000000000028e+00,-2.180116700000000129e+00,-2.414220400000000044e+00,-2.447767499999999874e+00,-2.444885100000000033e+00,-2.297420600000000146e+00,-2.103125400000000145e+00,-1.877082300000000092e+00,-1.539467499999999989e+00,-1.141504199999999969e+00,-8.126015100000000269e-01,-4.950751899999999983e-01,-1.751928700000000005e-01,7.494074000000000568e-02,3.002104400000000228e-01,4.039460400000000062e-01,4.649275700000000122e-01,5.059968900000000325e-01,5.727474700000000363e-01,5.167506499999999781e-01,5.172561399999999754e-01,5.117624600000000301e-01,4.460511300000000179e-01,4.632701599999999864e-01,4.777957099999999846e-01,5.061380399999999558e-01,5.230757200000000218e-01,4.908968899999999747e-01,5.535873799999999623e-01,5.794042099999999751e-01,5.108783999999999548e-01,5.768016299999999541e-01,5.585775899999999572e-01,5.438034200000000373e-01,5.459740299999999991e-01,4.531045899999999738e-01,4.702604300000000070e-01,5.153345299999999574e-01,3.909236500000000114e-01,4.020322299999999904e-01,3.994429299999999738e-01,3.347804400000000125e-01,3.925915700000000008e-01,2.820724299999999851e-01,3.119897899999999891e-01,3.473455200000000187e-01,3.516791499999999959e-01,5.154899600000000248e-01,6.022828500000000362e-01,6.511911599999999911e-01,6.326170199999999744e-01,4.099851999999999941e-01,3.688641100000000228e-01,3.135691299999999737e-01,1.393758300000000061e-01,9.367071899999999951e-02,7.736522299999999686e-02,1.253322099999999995e-01,6.044215900000000224e-02,8.307409100000000268e-02,5.498477699999999857e-02,6.196521199999999868e-02,8.666975300000000215e-02,6.561214499999999672e-02,3.229811200000000035e-03,1.095336900000000030e-01,6.000081699999999796e-02,4.045314500000000285e-02,6.921825500000000631e-02,1.785500700000000052e-01,4.565467400000000064e-01
2.030395399999999906e-01,4.620785000000000031e-01,7.483677199999999585e-01,9.969591700000000056e-01,9.985522100000000512e-01,8.494940300000000111e-01,8.757048200000000504e-01,1.009290900000000102e+00,8.080668100000000242e-01,1.612867500000000065e-01,-4.190579400000000176e-01,-4.501589799999999864e-01,-2.122606900000000019e-01,-3.351890799999999726e-01,-7.445360899999999837e-01,-8.418755199999999883e-01,-5.982127799999999995e-01,-4.674434900000000170e-01,-5.460764799999999752e-01,-6.948103199999999813e-01,-8.563385599999999709e-01,-9.066102700000000514e-01,-8.514106700000000361e-01,-7.671980999999999939e-01,-5.001002500000000239e-01,-2.679662999999999906e-01,-6.116133299999999551e-01,-1.141927600000000043e+00,-1.106833699999999920e+00,-9.168140900000000260e-01,-1.113356800000000035e+00,-1.124301299999999948e+00,-6.309169599999999711e-01,-4.175729599999999930e-01,-8.385813800000000429e-01,-1.133420099999999930e+00,-9.259513799999999906e-01,-8.273844999999999672e-01,-1.096835000000000004e+00,-1.291243200000000035e+00,-1.383113000000000037e+00,-1.601868400000000081e+00,-1.655146199999999901e+00,-1.448186100000000032e+00,-1.409357600000000099e+00,-1.504507100000000097e+00,-1.360674099999999997e+00,-1.110705099999999890e+00,-9.906629000000000129e-01,-8.647397500000000292e-01,-6.653407099999999463e-01,-5.317386899999999583e-01,-4.564116999999999758e-01,-2.935167699999999824e-01,-4.833456900000000084e-02,1.432134999999999936e-01,2.684479000000000171e-01,3.744858799999999932e-01,4.371203200000000066e-01,5.202981300000000253e-01,6.459546299999999741e-01,6.229615200000000463e-01,4.756044300000000224e-01,4.653211400000000220e-01,5.137292199999999864e-01,4.355724499999999999e-01,4.116696200000000139e-01,5.066028399999999987e-01,4.346805999999999726e-01,2.150974700000000128e-01,2.123012999999999983e-01,3.869744199999999856e-01,3.338562500000000210e-01,1.187471499999999958e-01,1.997738300000000133e-01,4.782539699999999727e-01,5.215996200000000416e-01,4.118594400000000211e-01,3.392570799999999887e-01,2.328307000000000015e-01,2.520958099999999757e-01,4.331545299999999821e-01,3.576404699999999881e-01,1.787383300000000008e-01,3.773719200000000273e-01,5.720517999999999992e-01,4.986916399999999916e-01,7.431263500000000466e-01,1.364037799999999967e+00,1.980245199999999928e+00,2.712524900000000017e+00,3.269881600000000166e+00,3.070403999999999911e+00,2.516015900000000194e+00,1.930880300000000105e+00,8.843861699999999715e-01
4.667929900000000187e-01,5.036253699999999611e-01,7.886691500000000410e-01,2.229357999999999895e-01,5.373035600000000134e-01,4.355325000000000168e-02,-2.611408199999999957e-01,8.031557799999999858e-01,-1.395228000000000024e-01,-6.121623299999999768e-01,-3.244207700000000250e-01,-1.672171299999999916e-01,-2.105413800000000002e-01,-9.578951799999999572e-01,-9.617278099999999885e-02,-3.117313700000000076e-01,-7.435776100000000000e-01,-8.732042500000000151e-01,-1.082299499999999970e+00,-6.393293700000000079e-01,-1.421438500000000049e+00,-1.884789000000000048e+00,-7.544771099999999509e-01,-1.297312299999999974e+00,-2.540979000000000099e+00,-2.312325899999999823e+00,-2.015621799999999908e+00,-2.268219499999999833e+00,-2.617174599999999796e+00,-2.411090600000000084e+00,-2.182032200000000088e+00,-2.190425900000000148e+00,-2.164480100000000018e+00,-1.726615900000000092e+00,-1.170310200000000078e+00,-1.269284300000000032e+00,-1.140406400000000042e+00,-2.260498200000000124e-01,2.983494400000000213e-01,2.268555899999999959e-01,3.909072299999999944e-01,7.156214699999999818e-01,7.700411700000000526e-01,8.656257400000000324e-01,1.080287599999999903e+00,1.044570699999999963e+00,7.043967599999999551e-01,8.499865500000000074e-01,1.217823099999999936e+00,7.601092499999999585e-01,4.658346899999999957e-01,9.120831900000000436e-01,9.351701100000000544e-01,6.341173300000000346e-01,5.956413799999999981e-01,7.062807800000000524e-01,9.128317700000000423e-01,8.276799799999999818e-01,6.122401800000000227e-01,9.540478000000000014e-01,9.756127300000000391e-01,6.299983200000000005e-01,5.399446700000000154e-01,4.817331999999999725e-01,6.609393000000000074e-01,7.853136099999999953e-01,8.260517899999999525e-01,6.401263900000000451e-01,2.774962799999999841e-01,5.091150700000000029e-01,6.991673600000000155e-01,7.442175500000000055e-01,3.362511499999999709e-02,4.706998099999999963e-01,7.746100500000000499e-01,2.792562199999999994e-01,4.451824200000000231e-01,1.820578200000000091e-01,6.891568399999999928e-01,6.244002699999999795e-01,-9.779386499999999371e-02,4.974603200000000114e-01,3.499982799999999949e-01,3.493373799999999751e-01,3.249330200000000168e-01,5.979556900000000397e-01,1.001973900000000084e+00,6.744097300000000406e-01,7.393239299999999625e-01,5.408632799999999463e-01,3.458342200000000255e-01,7.777283000000000390e-01,2.481278000000000095e-01,4.283499900000000381e-03,4.251935099999999967e-01,1.173768800000000029e-01
1.505844100000000019e-01,1.656593999999999900e+00,2.706766700000000192e+00,2.668704899999999824e+00,2.161648700000000201e+00,4.535816400000000082e-01,-1.124807300000000065e+00,-3.575580400000000214e-02,7.193398199999999632e-01,1.692005699999999946e-01,5.259248300000000098e-01,6.446018900000000107e-01,-3.219820600000000005e-02,-6.531313600000000497e-01,-6.474400799999999734e-01,-9.985464800000000141e-01,-9.873910700000000373e-01,-1.234770900000000005e+00,-1.168894300000000053e+00,-1.132582999999999895e+00,-1.281441800000000075e+00,-1.202279499999999945e+00,-1.347345800000000038e+00,-1.470596599999999921e+00,-1.660908400000000062e+00,-1.733252599999999921e+00,-1.676199199999999889e+00,-1.722870200000000018e+00,-1.956784300000000032e+00,-2.094501300000000121e+00,-1.996595600000000026e+00,-1.887430500000000011e+00,-1.952326500000000076e+00,-1.593389900000000026e+00,-1.401448699999999992e+00,-1.356012900000000077e+00,-9.588645700000000272e-01,-4.833041699999999774e-01,-4.462534299999999787e-02,1.314417499999999961e-01,3.489348500000000186e-01,6.534552300000000535e-01,9.282774599999999987e-01,9.034956600000000337e-01,9.704862699999999842e-01,1.022135400000000027e+00,1.077049799999999946e+00,9.730699499999999613e-01,9.299805599999999561e-01,8.490320700000000276e-01,7.688215800000000044e-01,7.562183399999999889e-01,6.560993699999999595e-01,8.124866099999999980e-01,7.248539999999999983e-01,6.064363400000000182e-01,5.388309100000000518e-01,5.959828499999999529e-01,7.660898099999999822e-01,6.519606799999999591e-01,5.815219200000000255e-01,5.095475099999999813e-01,6.145267500000000105e-01,6.888018799999999775e-01,3.905264399999999747e-01,3.070126499999999981e-01,3.350922299999999909e-01,4.243021200000000048e-01,3.664959300000000253e-01,1.673354400000000020e-01,4.128492599999999957e-01,5.383408600000000321e-01,3.794544599999999934e-01,5.447963399999999901e-01,7.541387699999999583e-01,7.192678399999999916e-01,5.020620599999999767e-01,3.098825099999999999e-01,2.449944699999999920e-01,1.870623999999999898e-01,2.270864699999999847e-02,-1.909017699999999984e-01,-8.908971799999999830e-02,-3.598417400000000071e-02,-1.356167400000000134e-01,3.892077000000000037e-02,-1.152132800000000012e-01,-2.275788400000000045e-01,-1.284299600000000097e-01,-1.619317999999999869e-01,-1.422336800000000012e-02,-1.007101999999999997e-01,1.019121600000000016e-01,1.228789800000000022e-02,-1.041050000000000031e-01,4.635529299999999742e-01
-1.573891699999999949e-01,7.369809299999999785e-01,2.499637900000000190e+00,3.052124500000000129e+00,1.628031900000000087e+00,-3.609350599999999742e-01,-1.226959799999999934e+00,-9.028940000000000576e-02,4.613436799999999782e-01,2.639464899999999781e-01,3.728757799999999900e-01,1.095485999999999960e-01,-6.170334499999999833e-01,-1.240591900000000081e+00,-6.375969799999999799e-01,-1.186733899999999897e+00,-1.178848099999999954e+00,-1.302161799999999925e+00,-9.920573499999999489e-01,-1.004383000000000026e+00,-1.293512199999999890e+00,-1.448669699999999949e+00,-1.715883899999999906e+00,-1.431725600000000043e+00,-1.499084599999999989e+00,-1.558642400000000094e+00,-1.856759999999999966e+00,-2.015085899999999874e+00,-1.734910200000000069e+00,-1.626483899999999982e+00,-1.921890700000000063e+00,-2.057780900000000024e+00,-1.686767899999999987e+00,-1.464576099999999936e+00,-1.386751800000000090e+00,-1.105082600000000026e+00,-6.032517699999999650e-01,-2.838161100000000103e-01,1.852977999999999917e-02,3.097970700000000077e-01,6.101479699999999839e-01,1.189013600000000004e+00,8.932306599999999541e-01,9.847220300000000259e-01,1.200026000000000037e+00,1.136819000000000024e+00,1.137780500000000083e+00,1.124011099999999930e+00,1.016552700000000087e+00,9.504993400000000259e-01,1.006363600000000025e+00,8.931082299999999474e-01,6.536202399999999635e-01,8.864638500000000532e-01,9.486172200000000387e-01,5.431491999999999987e-01,8.547962099999999452e-01,4.430925600000000242e-01,3.590752600000000072e-01,1.043270099999999978e+00,8.276591500000000101e-01,2.992259299999999733e-01,4.913690299999999844e-01,6.228344300000000500e-01,2.447469300000000014e-01,5.154587099999999866e-01,5.093311499999999548e-01,2.576391199999999992e-01,5.444836499999999857e-01,1.046705700000000044e-01,3.047871100000000277e-01,2.912410100000000224e-01,6.150537999999999839e-02,4.888396300000000250e-01,4.815655200000000247e-01,7.640048900000000476e-01,5.788592099999999574e-01,6.546599600000000407e-01,5.788007200000000463e-01,-5.764112400000000191e-02,3.389539999999999775e-01,1.320958000000000132e-01,7.689876099999999604e-02,-5.898039100000000007e-02,-7.674876799999999499e-02,-2.210237099999999913e-02,-1.613225500000000090e-01,6.865574000000000676e-02,1.921493999999999980e-01,-5.126355900000000021e-02,6.864409200000000377e-02,-1.725566099999999853e-02,1.651003599999999877e-02,1.490497000000000072e-01,-2.630604900000000149e-02,1.654611300000000118e-01
6.565671400000000490e-01,2.439455000000000151e+00,3.768696100000000104e+00,2.504815400000000025e+00,2.081098200000000009e+00,5.878676900000000538e-01,-1.052793899999999949e+00,9.188046499999999450e-02,9.921459299999999537e-01,2.387369500000000033e-01,2.061945500000000042e-01,5.542739300000000258e-01,-4.805705100000000063e-01,-6.085605299999999884e-01,-6.312327599999999483e-01,-7.509795599999999904e-01,-9.105596000000000245e-01,-1.174628699999999970e+00,-9.527591499999999991e-01,-1.173999000000000015e+00,-1.224854700000000074e+00,-1.088079500000000088e+00,-1.302638399999999974e+00,-1.377933499999999922e+00,-1.587647000000000030e+00,-1.717180600000000057e+00,-1.704170200000000079e+00,-1.773629300000000075e+00,-1.805168499999999954e+00,-1.633550099999999894e+00,-1.850526899999999975e+00,-1.766963599999999968e+00,-1.650043600000000055e+00,-1.433401600000000053e+00,-1.045571299999999981e+00,-9.591086100000000281e-01,-6.510853899999999861e-01,-2.949182499999999929e-01,8.552100799999999559e-02,3.774157399999999996e-01,4.623290299999999742e-01,7.695873199999999636e-01,9.086850699999999836e-01,1.065449099999999927e+00,1.011872399999999894e+00,8.832650199999999563e-01,1.187173899999999893e+00,8.935629999999999962e-01,7.284737799999999597e-01,9.451632699999999998e-01,5.985989299999999735e-01,5.562174199999999624e-01,6.900943499999999675e-01,6.273647900000000055e-01,5.953681600000000351e-01,5.643852700000000500e-01,7.341126900000000122e-01,6.381907199999999891e-01,5.124517299999999942e-01,6.474742999999999471e-01,7.577293400000000290e-01,3.591961000000000181e-01,5.930766699999999725e-01,5.732376500000000430e-01,1.803938599999999892e-01,5.449790899999999993e-01,3.300912200000000185e-01,2.613117799999999935e-01,3.482314599999999927e-01,1.580212400000000073e-01,2.083500199999999969e-01,1.447346599999999872e-01,3.045422199999999746e-01,5.792373400000000450e-01,5.870268400000000497e-01,4.232771200000000067e-01,6.751635200000000170e-01,3.282856299999999949e-01,-9.694356899999999333e-02,4.424404299999999679e-02,-1.272409800000000035e-01,-1.149354300000000051e-01,-2.817837200000000153e-01,-1.477350900000000133e-01,-2.858337000000000239e-01,7.028053299999999595e-05,-3.900028899999999910e-01,-4.725724399999999825e-01,-1.079565499999999983e-01,-4.275919300000000089e-01,-3.700785899999999851e-01,-3.562247700000000239e-01,-4.278256599999999965e-01,-3.796344799999999964e-01,-3.576884000000000174e-01,-5.908542099999999908e-02
1.257137900000000030e+00,2.780969699999999989e+00,3.287134800000000023e+00,2.700352000000000086e+00,8.695115399999999717e-01,7.542395100000000019e-01,1.521266800000000030e+00,1.020612499999999923e+00,1.033002900000000057e+00,9.199827499999999603e-01,4.030876299999999746e-03,-4.328252000000000210e-01,-4.352368500000000084e-01,-6.446781400000000106e-01,-8.072327799999999831e-01,-7.874457400000000051e-01,-8.993491799999999703e-01,-9.930335200000000029e-01,-1.109869900000000076e+00,-1.150435700000000061e+00,-1.272275299999999998e+00,-1.385109200000000040e+00,-1.473706900000000042e+00,-1.521644900000000078e+00,-1.619087699999999908e+00,-1.840881599999999896e+00,-1.766894699999999929e+00,-1.995584299999999978e+00,-2.140310799999999958e+00,-1.917924600000000090e+00,-1.987336699999999956e+00,-1.817844400000000027e+00,-1.771428900000000084e+00,-1.420821799999999913e+00,-9.947763099999999969e-01,-7.374476599999999493e-01,-3.632556599999999802e-01,1.113691999999999981e-02,3.764232000000000133e-01,4.580370500000000011e-01,6.840241299999999525e-01,7.814067599999999780e-01,8.041980899999999766e-01,7.781323599999999674e-01,8.654642999999999642e-01,7.307319300000000295e-01,5.854084999999999983e-01,6.558606299999999445e-01,6.016523900000000369e-01,6.056787599999999827e-01,5.366163499999999642e-01,5.325784700000000260e-01,6.359820999999999946e-01,5.309961199999999604e-01,5.594964399999999838e-01,5.494149600000000078e-01,5.005977600000000027e-01,4.921699900000000016e-01,4.244528200000000084e-01,4.623698500000000267e-01,3.362096600000000213e-01,3.560320299999999993e-01,4.353280099999999875e-01,3.404429400000000272e-01,2.855774400000000157e-01,2.331721499999999947e-01,3.134542599999999846e-01,3.000187400000000060e-01,1.777753699999999881e-01,1.615670200000000056e-01,2.271373899999999946e-01,1.510855200000000009e-01,1.289674899999999902e-01,3.210587300000000144e-01,5.590385700000000124e-01,6.096181299999999803e-01,5.414016200000000278e-01,3.957459600000000077e-01,2.126331099999999863e-01,7.760189400000000459e-02,6.243014899999999728e-02,4.360660300000000072e-02,-1.201735899999999968e-01,-1.375067199999999989e-01,-1.382303300000000124e-01,-9.782260700000000586e-02,-3.576297900000000030e-01,-2.356849400000000094e-01,-1.233069900000000052e-01,-2.241764499999999993e-01,-2.264635999999999871e-01,-2.070851499999999956e-01,-1.011727899999999986e-01,-3.139183899999999916e-01,-1.680422400000000094e-01,1.566778899999999863e-01
1.882468200000000091e-01,5.401186100000000545e-01,2.178449300000000033e+00,3.493768799999999786e+00,2.075330800000000142e+00,1.210254299999999894e+00,-2.673257700000000181e-01,-8.668596299999999921e-01,2.833957799999999860e-01,4.001209099999999963e-01,1.420812499999999923e-01,9.288175399999999693e-02,1.824075400000000069e-01,-6.908857099999999862e-01,-8.147232699999999994e-01,-9.503718399999999678e-01,-1.111058600000000007e+00,-1.194250299999999987e+00,-1.133374000000000104e+00,-1.182391200000000087e+00,-1.296750499999999917e+00,-1.346519199999999916e+00,-1.401760300000000070e+00,-1.528303399999999979e+00,-1.675998000000000099e+00,-1.681773799999999985e+00,-1.694024600000000103e+00,-1.727597400000000061e+00,-2.075028300000000048e+00,-1.952686700000000108e+00,-1.909055600000000075e+00,-2.047341100000000136e+00,-1.964980699999999914e+00,-1.738151000000000002e+00,-1.394908599999999943e+00,-1.324397199999999941e+00,-8.243989900000000537e-01,-3.129853799999999797e-01,-1.590168999999999888e-01,2.884458899999999826e-01,4.842241099999999854e-01,8.159364300000000458e-01,9.332572199999999984e-01,8.698810300000000550e-01,1.016363499999999975e+00,1.074893899999999958e+00,9.801432500000000214e-01,9.464998500000000314e-01,8.543415899999999841e-01,7.357248699999999753e-01,7.186938999999999966e-01,6.585331800000000513e-01,6.848899999999999988e-01,7.092425599999999664e-01,5.657021300000000252e-01,5.582041300000000206e-01,5.666670600000000002e-01,5.856721700000000475e-01,5.835782400000000258e-01,4.476914000000000171e-01,5.782637400000000261e-01,5.254658100000000331e-01,4.530575099999999966e-01,4.765666700000000255e-01,3.551857099999999878e-01,4.557194700000000154e-01,4.901226900000000275e-01,3.834806800000000182e-01,2.239641099999999940e-01,3.329754999999999798e-01,4.131471999999999922e-01,1.055094200000000065e-01,5.524078300000000441e-01,7.989831899999999543e-01,6.688183500000000059e-01,8.149307000000000079e-01,5.774244400000000388e-01,4.401151300000000210e-01,3.508528399999999992e-01,1.834702500000000014e-01,2.329326800000000031e-01,1.488632500000000025e-01,2.579492200000000138e-02,-8.893753699999999707e-02,1.061531000000000002e-01,2.308548300000000109e-01,7.855391600000000141e-02,5.938019199999999831e-02,1.420970099999999950e-03,4.170197800000000066e-02,1.633299699999999910e-01,-1.449844100000000080e-01,-3.306949900000000220e-02,2.201090300000000111e-01,4.948086299999999993e-02,1.292303900000000005e-01
5.347351999999999661e-01,1.151228200000000035e+00,2.665373100000000051e+00,4.177604599999999557e+00,2.916896500000000003e+00,1.478838000000000097e+00,1.356196299999999910e-01,-6.341789500000000190e-01,3.758863700000000252e-01,9.080794800000000500e-01,5.848409199999999863e-01,2.732337799999999817e-01,3.902979200000000204e-01,8.888308699999999951e-02,-3.768425000000000247e-01,-5.171606100000000206e-01,-6.846689099999999639e-01,-7.512042300000000283e-01,-8.301408099999999513e-01,-7.280140000000000500e-01,-9.187872400000000050e-01,-1.186973400000000067e+00,-8.387313899999999656e-01,-9.895756300000000394e-01,-1.397453899999999916e+00,-1.302002600000000010e+00,-1.422219300000000075e+00,-1.633753800000000034e+00,-1.651198799999999967e+00,-1.782415099999999919e+00,-1.882206899999999905e+00,-1.950871900000000103e+00,-1.805555199999999916e+00,-1.742631800000000064e+00,-1.471521599999999985e+00,-1.403168699999999935e+00,-1.149459699999999973e+00,-7.558653800000000311e-01,-5.648203699999999605e-01,5.879705500000000085e-02,4.650957599999999692e-02,4.587293499999999663e-02,4.819905700000000071e-01,7.753849999999999909e-01,5.691909400000000341e-01,9.135862700000000336e-01,9.546888599999999725e-01,1.005422800000000061e+00,1.037765599999999955e+00,8.060737100000000543e-01,8.511939099999999980e-01,8.239460600000000357e-01,7.131083999999999756e-01,6.044992099999999535e-01,7.220673800000000364e-01,5.798702199999999918e-01,5.255323800000000212e-01,4.967207900000000231e-01,6.210446200000000472e-01,5.105969799999999781e-01,6.413603500000000235e-01,5.511052499999999910e-01,3.322685499999999958e-01,7.730892999999999793e-01,3.645065800000000245e-01,1.551154100000000091e-01,6.007775100000000146e-01,1.159596999999999989e-01,-5.222582499999999656e-03,1.648124099999999925e-01,4.815663600000000266e-02,4.553181500000000326e-02,6.665070300000000558e-02,2.305236099999999899e-01,6.032275099999999668e-01,7.123870799999999504e-01,4.991040500000000213e-01,2.730079100000000203e-01,1.420472000000000123e-01,7.157657000000000602e-02,5.574547600000000214e-02,-1.489382700000000115e-01,-3.204060000000000241e-01,-2.032003900000000085e-01,-3.765003599999999784e-01,-3.970154699999999814e-01,-1.885520400000000041e-01,-5.510472100000000095e-01,-2.270898699999999992e-01,-5.398288799999999554e-01,-2.320775599999999883e-01,1.094986099999999962e-01,-6.876855600000000290e-01,-3.163466899999999860e-01,-4.329001599999999783e-01,-3.835983299999999874e-01
2.041297899999999998e+00,2.021590499999999846e+00,1.925895399999999924e+00,2.334360499999999838e+00,1.173873699999999909e+00,-4.525476800000000077e-01,-7.280887099999999723e-01,-9.728686100000000225e-01,-1.133044399999999952e+00,-1.308392100000000058e+00,-1.426910399999999912e+00,-1.377799500000000066e+00,-1.494645199999999896e+00,-1.639158499999999963e+00,-1.650746899999999906e+00,-1.637119999999999909e+00,-1.747546199999999939e+00,-1.795781599999999978e+00,-1.892359300000000077e+00,-1.862291099999999977e+00,-2.031474799999999803e+00,-2.018180300000000038e+00,-1.881873899999999988e+00,-1.878813599999999973e+00,-1.702140599999999893e+00,-1.638921999999999990e+00,-1.370551300000000028e+00,-1.074530999999999903e+00,-7.757788199999999801e-01,-3.258010000000000073e-01,1.059807700000000019e-01,4.198409699999999800e-01,5.578072899999999557e-01,6.617238300000000129e-01,7.420452400000000504e-01,7.688021999999999911e-01,8.877309300000000292e-01,9.306131399999999498e-01,8.927880799999999839e-01,8.258745400000000458e-01,7.132340499999999528e-01,6.348701199999999822e-01,5.814071200000000550e-01,5.586097899999999949e-01,5.188742600000000316e-01,5.462278799999999990e-01,4.627743699999999905e-01,3.871009200000000150e-01,4.985474599999999978e-01,4.584986200000000234e-01,3.833741600000000194e-01,4.624378000000000100e-01,5.212828800000000040e-01,5.428955500000000045e-01,7.044486399999999593e-01,8.108686800000000083e-01,8.412896899999999789e-01,8.524526700000000234e-01,6.910835199999999512e-01,7.473704399999999692e-01,7.926625000000000476e-01,8.248915500000000289e-01,7.335563299999999787e-01,5.422110599999999669e-01,4.398919000000000024e-01,1.781858299999999895e-01,6.792863799999999952e-02,-4.247580699999999737e-02,-6.794190700000000104e-03,1.504788399999999922e-02,-4.901316599999999690e-02,-9.470398500000000441e-02,-1.140151999999999971e-01,-1.161538400000000073e-03,-8.385209999999999886e-02,-9.396670699999999654e-02,-7.874890499999999405e-02,1.959978400000000052e-04,-8.771180000000000643e-02,-9.344386000000000359e-02,-5.769818000000000169e-02,-6.041902100000000331e-02,-5.721433199999999969e-02,-1.164200299999999938e-01,-2.491886700000000079e-02,8.891034500000000174e-02,1.152833899999999995e-01,6.665418600000000415e-02,1.039602699999999935e-01,2.387702100000000105e-01,3.062083600000000128e-01,3.375723900000000000e-01,7.552659299999999742e-01,8.679376800000000447e-01,8.382344499999999643e-01,1.358682699999999910e+00
5.859759399999999729e-01,1.137179500000000010e+00,1.290790899999999963e+00,1.335949999999999971e+00,1.257229099999999988e+00,5.612818599999999658e-03,-8.532001999999999642e-01,-8.540850800000000520e-01,-9.544480400000000531e-01,-7.457029800000000153e-01,-9.066471900000000472e-01,-1.169308500000000084e+00,-1.227813499999999891e+00,-1.445671300000000103e+00,-1.364139400000000002e+00,-1.445737800000000073e+00,-1.662269800000000020e+00,-1.505065199999999992e+00,-1.676811000000000051e+00,-1.824103400000000041e+00,-1.651407099999999906e+00,-1.830753000000000075e+00,-1.638942700000000086e+00,-1.712566000000000033e+00,-1.998997399999999924e+00,-1.709813400000000039e+00,-1.674766200000000094e+00,-1.241032700000000100e+00,-9.446905100000000388e-01,-9.861902299999999455e-01,-6.819732600000000255e-01,-1.818205499999999974e-01,4.114501699999999901e-02,2.696525699999999803e-01,4.888729399999999781e-01,5.086138799999999627e-01,8.144033699999999598e-01,9.045377000000000001e-01,8.413346900000000517e-01,9.991165400000000529e-01,7.065444699999999800e-01,6.498451600000000328e-01,7.808725300000000091e-01,8.148721100000000384e-01,8.735990300000000541e-01,2.394880400000000131e-01,9.788600699999999710e-01,8.485243700000000278e-01,2.791564699999999899e-01,4.694718500000000239e-01,5.539031500000000108e-01,7.457211700000000443e-01,5.401836199999999755e-01,6.670728500000000505e-01,4.367546199999999823e-01,6.217800199999999888e-01,4.437361699999999853e-01,3.734014999999999973e-01,4.764406500000000211e-01,3.869971400000000172e-01,7.752826299999999726e-01,3.783744800000000130e-01,1.361238999999999921e-01,1.933703599999999911e-01,2.153120099999999981e-01,6.883127700000000182e-01,8.651366099999999726e-01,1.104007399999999972e+00,5.310590400000000377e-01,2.098634799999999911e-01,4.704048200000000013e-01,1.342833400000000010e-01,5.155354899999999713e-02,5.046193900000000010e-01,-1.077477899999999961e-01,-2.809307200000000226e-01,-9.797888000000000430e-02,-9.013698900000000416e-03,8.335087700000000377e-02,-2.715116200000000091e-01,-1.728882999999999948e-01,-1.563035100000000066e-01,-5.778052499999999925e-02,-1.968077799999999877e-01,-3.565453900000000176e-01,-2.401755200000000035e-01,-2.815551800000000091e-02,-2.505628400000000089e-01,5.080214800000000253e-01,1.393138100000000046e+00,2.437916400000000205e+00,2.910063800000000089e+00,1.973547799999999963e+00,-4.871177200000000040e-02,-1.527292099999999930e+00,-2.410195300000000096e-01
9.997074200000000133e-01,2.791168799999999894e+00,3.655678299999999936e+00,2.470979799999999837e+00,1.459418499999999952e+00,3.331746400000000219e-01,5.504913000000000167e-01,1.467911299999999919e+00,1.213143199999999977e+00,1.081372199999999895e+00,9.965600799999999593e-01,4.623655300000000246e-01,-3.615082800000000152e-01,-5.039066700000000010e-01,-5.744272200000000161e-01,-6.249174199999999457e-01,-7.127255999999999592e-01,-8.772519399999999523e-01,-8.631119999999999903e-01,-9.489543900000000365e-01,-1.091887899999999911e+00,-1.154423200000000094e+00,-1.155744700000000069e+00,-1.236708900000000000e+00,-1.439344600000000085e+00,-1.532860200000000006e+00,-1.550576500000000024e+00,-1.697434000000000109e+00,-1.929022500000000084e+00,-1.885866700000000007e+00,-1.978861999999999899e+00,-1.985493799999999975e+00,-1.968055700000000074e+00,-1.877146299999999934e+00,-1.610291300000000092e+00,-1.422785699999999931e+00,-1.042061399999999916e+00,-6.519122699999999604e-01,-3.867425400000000235e-01,-2.473953500000000000e-02,3.419060400000000222e-01,5.308064099999999508e-01,5.238990799999999615e-01,7.193415499999999962e-01,8.371942100000000497e-01,7.403328099999999523e-01,7.574159200000000203e-01,7.083963100000000290e-01,6.771030799999999683e-01,5.996245000000000047e-01,5.290187100000000031e-01,6.190777499999999822e-01,5.918086000000000180e-01,5.010695899999999536e-01,5.112395299999999976e-01,5.587826700000000368e-01,4.407389800000000024e-01,4.850310700000000086e-01,5.018945200000000106e-01,4.609559799999999874e-01,3.998805799999999855e-01,4.044483700000000015e-01,4.062913400000000008e-01,3.791714299999999760e-01,3.223414600000000241e-01,2.823616199999999798e-01,3.548528100000000185e-01,2.142183599999999966e-01,1.878281900000000060e-01,2.908464599999999733e-01,1.644783900000000021e-01,1.095010700000000059e-01,1.520704099999999892e-01,1.993418000000000134e-01,2.996775099999999803e-01,4.849538700000000091e-01,6.030094900000000369e-01,6.067196000000000256e-01,4.301798700000000197e-01,2.311393900000000001e-01,2.270145100000000027e-01,5.154640199999999811e-02,-1.072270699999999938e-01,-9.564999999999999891e-02,-1.571964799999999995e-01,-1.961491399999999996e-01,-1.102054600000000051e-01,-1.987160599999999999e-01,-2.187478599999999884e-01,-2.257752100000000040e-01,-2.885725599999999780e-01,-1.600382999999999944e-01,-2.425538299999999980e-01,-3.107039600000000013e-01,-2.648393399999999787e-01,-2.543427699999999958e-01
1.616336400000000006e+00,2.099726599999999888e+00,1.787911599999999934e+00,1.328062099999999912e+00,7.593850800000000456e-01,2.303558800000000129e-01,-1.807216600000000062e-01,-1.545460700000000076e-01,3.090625099999999917e-02,-7.515536800000000017e-02,-3.368714600000000114e-01,-2.365224400000000005e-01,1.744644600000000087e-02,3.106747300000000170e-02,-1.195417700000000055e-01,-4.260994200000000065e-01,-7.878786800000000534e-01,-8.331560700000000264e-01,-6.991823900000000425e-01,-7.868791000000000535e-01,-9.188944599999999685e-01,-8.497791099999999487e-01,-8.212655599999999501e-01,-9.424380300000000377e-01,-9.580670999999999493e-01,-9.075323400000000484e-01,-1.006248800000000054e+00,-1.125971999999999973e+00,-1.226587499999999942e+00,-1.374571900000000069e+00,-1.362104800000000004e+00,-1.295459600000000044e+00,-1.460363199999999972e+00,-1.610217900000000091e+00,-1.620573800000000064e+00,-1.690714599999999956e+00,-1.721037099999999986e+00,-1.681953699999999996e+00,-1.699660100000000007e+00,-1.646620200000000089e+00,-1.537643400000000105e+00,-1.519050599999999918e+00,-1.440101899999999935e+00,-1.236472800000000039e+00,-1.072229099999999935e+00,-9.604260199999999914e-01,-8.281472699999999909e-01,-6.265144200000000163e-01,-3.872680199999999906e-01,-2.529008600000000051e-01,-1.590605200000000108e-01,2.574057500000000165e-02,1.410731100000000016e-01,1.709382600000000085e-01,3.080621800000000188e-01,4.142425100000000082e-01,3.743684400000000245e-01,4.225374599999999758e-01,5.508315099999999687e-01,5.176186400000000187e-01,4.146495700000000229e-01,4.622959899999999900e-01,5.686193099999999889e-01,5.440270699999999460e-01,4.602788400000000224e-01,4.835684000000000093e-01,5.334765500000000493e-01,4.824060700000000201e-01,4.458716899999999872e-01,4.574672900000000264e-01,4.179313100000000003e-01,4.721145600000000164e-01,6.271625100000000064e-01,5.930361600000000344e-01,4.883721799999999891e-01,5.718171300000000068e-01,7.081623000000000223e-01,8.505602500000000177e-01,9.924723699999999926e-01,9.831422199999999556e-01,1.007041899999999934e+00,1.219543800000000067e+00,1.354761300000000057e+00,1.375522200000000028e+00,1.453293100000000004e+00,1.466157699999999897e+00,1.376751400000000070e+00,1.391646299999999892e+00,1.436900300000000019e+00,1.265898600000000096e+00,1.142524300000000048e+00,1.326915000000000067e+00,1.414801299999999928e+00,8.076271499999999604e-01,1.164898999999999935e-01,3.651456299999999988e-02
2.947675799999999735e-01,8.609315800000000296e-01,2.419187700000000163e+00,3.452052699999999863e+00,2.020630600000000054e+00,-1.905968900000000119e-02,-9.933593800000000140e-01,-1.065282500000000049e-01,5.471362499999999907e-01,3.758084500000000161e-01,4.727727999999999930e-01,2.737746799999999925e-01,-2.372097599999999917e-01,-9.423352200000000289e-01,-6.850309399999999771e-01,-9.491158200000000544e-01,-1.039539800000000014e+00,-1.168971900000000064e+00,-1.191339200000000043e+00,-9.059241999999999573e-01,-1.304685300000000048e+00,-1.436680100000000015e+00,-1.428692400000000085e+00,-1.612086899999999989e+00,-1.617892300000000061e+00,-1.727227499999999916e+00,-1.654312699999999969e+00,-1.864747900000000014e+00,-2.043702500000000200e+00,-1.788157699999999961e+00,-1.984309600000000007e+00,-2.142646099999999887e+00,-1.460745399999999972e+00,-1.797848399999999902e+00,-1.478095699999999901e+00,-1.230929099999999998e+00,-7.982212300000000038e-01,-2.328782700000000053e-02,-4.702409100000000119e-01,1.558085800000000021e-01,5.932721699999999876e-01,7.932763800000000032e-01,8.835264299999999738e-01,9.873342000000000507e-01,1.138385299999999933e+00,9.823236899999999716e-01,1.001021399999999950e+00,8.316353899999999744e-01,9.099892600000000220e-01,8.462475099999999806e-01,6.458225699999999847e-01,6.967752200000000284e-01,6.926768500000000106e-01,8.180767500000000192e-01,5.011595800000000489e-01,5.780495300000000336e-01,6.415886800000000223e-01,6.531270300000000528e-01,4.772835899999999798e-01,4.920463800000000054e-01,7.671277199999999574e-01,5.348572099999999718e-01,4.284682899999999739e-01,5.044316899999999881e-01,3.679991699999999866e-01,2.706822700000000026e-01,3.539179299999999917e-01,3.647628199999999876e-01,1.652396499999999879e-01,2.495047900000000041e-01,2.382573799999999908e-01,3.417550200000000205e-01,3.040398799999999846e-01,6.617560999999999582e-01,9.348879300000000336e-01,5.931077000000000155e-01,5.768689500000000470e-01,4.787322399999999756e-01,3.804219300000000192e-01,3.897956300000000041e-01,5.512615199999999771e-02,4.853401999999999716e-02,2.372685999999999892e-02,1.842952100000000079e-02,3.760292900000000160e-01,-4.970063700000000063e-03,-1.613086999999999993e-01,8.179623900000000669e-02,1.198641099999999959e-01,-2.388513499999999901e-01,1.956168000000000073e-01,7.848550099999999918e-02,-1.569504100000000124e-01,1.625603300000000029e-01,-6.183097000000000246e-03,5.679154499999999883e-01
5.807385999999999937e-01,1.097110599999999936e+00,1.744056400000000062e+00,2.278371200000000041e+00,2.389487499999999986e+00,2.348416299999999790e+00,1.943237899999999962e+00,1.277483799999999947e+00,6.534142200000000456e-01,8.174774599999999614e-02,9.201030100000000267e-02,2.716468200000000111e-01,-2.237129999999999952e-01,-3.192884300000000120e-01,1.573392700000000033e-01,3.326696400000000303e-02,-2.766046400000000127e-01,-4.154688999999999743e-01,-7.076990199999999565e-01,-7.798772000000000482e-01,-7.063512299999999966e-01,-8.292645400000000500e-01,-8.831244400000000105e-01,-7.855514900000000189e-01,-8.121830100000000385e-01,-1.159634000000000054e+00,-1.402468800000000071e+00,-1.143903499999999962e+00,-1.150597400000000103e+00,-1.630256499999999997e+00,-1.677548000000000039e+00,-1.521735300000000013e+00,-1.750713500000000034e+00,-1.990933000000000064e+00,-2.086291000000000118e+00,-2.073169699999999782e+00,-1.911572000000000049e+00,-1.844463399999999975e+00,-1.826695299999999911e+00,-1.704751300000000080e+00,-1.592494199999999971e+00,-1.408161100000000054e+00,-1.067223299999999986e+00,-7.323986700000000294e-01,-6.140476000000000267e-01,-6.236553299999999522e-01,-3.025521099999999852e-01,1.162127700000000069e-01,5.541168800000000061e-02,6.644275099999999434e-02,4.233214200000000038e-01,4.532305799999999940e-01,3.066924500000000053e-01,3.592172599999999827e-01,3.696069300000000002e-01,3.830122200000000143e-01,4.717634800000000128e-01,4.611043100000000172e-01,3.737331600000000087e-01,2.932604400000000111e-01,2.857049799999999973e-01,3.394880900000000201e-01,3.627136200000000144e-01,3.857468700000000195e-01,3.750494400000000117e-01,3.292820100000000139e-01,3.649434200000000184e-01,3.674025200000000102e-01,3.587516600000000278e-01,5.216250099999999446e-01,6.297481299999999615e-01,6.374474999999999447e-01,8.201197000000000070e-01,1.029118800000000000e+00,1.070824999999999916e+00,1.050570299999999957e+00,9.305966100000000463e-01,7.131312899999999733e-01,6.822311399999999582e-01,7.301961700000000333e-01,6.047154999999999614e-01,6.579125900000000193e-01,7.901825199999999993e-01,5.963662499999999866e-01,5.033035900000000229e-01,5.148593999999999671e-01,3.625042499999999723e-01,4.189115199999999817e-01,4.368399099999999979e-01,2.302657200000000071e-01,3.066673699999999947e-01,4.188093700000000141e-01,2.830767799999999723e-01,2.866686600000000196e-01,3.296469100000000152e-01,1.476310399999999912e-01
3.812386500000000122e-01,6.335302400000000222e-01,1.002302000000000026e+00,1.521277699999999955e+00,1.863894200000000057e+00,1.792766599999999988e+00,1.381155200000000027e+00,8.568432099999999663e-01,2.638634699999999889e-01,-1.528085299999999980e-01,-1.303639000000000048e-01,8.405992299999999473e-02,3.407609500000000069e-02,-1.846082800000000135e-01,-2.471865900000000116e-01,-1.918673599999999868e-01,-1.023609600000000008e-01,-1.007917499999999994e-01,-3.813651800000000258e-01,-6.313635100000000167e-01,-6.060699299999999790e-01,-6.404775499999999511e-01,-7.042157100000000503e-01,-6.324910000000000254e-01,-7.438453699999999502e-01,-9.688457999999999792e-01,-9.466538100000000400e-01,-8.419070800000000299e-01,-8.526250800000000352e-01,-9.151150000000000118e-01,-1.070632000000000028e+00,-1.302611900000000045e+00,-1.394298700000000002e+00,-1.331619099999999944e+00,-1.364230499999999902e+00,-1.544710599999999934e+00,-1.677070899999999920e+00,-1.716996299999999920e+00,-1.751934499999999950e+00,-1.753092400000000106e+00,-1.743061600000000100e+00,-1.821335300000000101e+00,-1.832403500000000074e+00,-1.601143900000000064e+00,-1.341414799999999907e+00,-1.221969800000000106e+00,-1.124238499999999918e+00,-1.032507400000000075e+00,-9.356172600000000061e-01,-6.968544599999999534e-01,-3.740789900000000001e-01,-1.328647299999999865e-01,1.306359900000000039e-02,1.376272099999999998e-01,3.073521599999999854e-01,4.799749500000000113e-01,5.814071400000000445e-01,6.791708600000000429e-01,7.915173500000000084e-01,8.158402900000000235e-01,7.803830099999999881e-01,7.784324099999999635e-01,8.124670899999999474e-01,8.614150600000000102e-01,8.523376700000000472e-01,7.872320499999999610e-01,7.979253400000000385e-01,8.280307900000000165e-01,8.057005400000000206e-01,8.067335900000000004e-01,7.509170099999999959e-01,7.093515099999999629e-01,8.210905099999999956e-01,7.697522900000000057e-01,5.972050700000000045e-01,7.597606500000000374e-01,9.638384500000000132e-01,8.753983899999999707e-01,8.250961599999999674e-01,8.668086400000000191e-01,8.529583600000000265e-01,8.642477699999999707e-01,8.955560099999999579e-01,1.013769600000000048e+00,1.145372700000000021e+00,1.041041499999999953e+00,1.054054800000000069e+00,1.349483100000000046e+00,1.436389899999999997e+00,1.300242300000000073e+00,9.529678400000000105e-01,3.539751899999999951e-01,-3.779265799999999981e-02,-6.093738699999999842e-01,-1.474070999999999909e+00,-1.070009100000000046e+00
3.145291399999999848e-01,1.912354799999999910e+00,2.933355600000000063e+00,1.578852399999999934e+00,1.351756799999999981e+00,2.808918900000000052e-02,-1.263288699999999931e+00,3.285789399999999860e-02,4.000393300000000263e-01,-2.006364300000000045e-01,6.554350800000000032e-02,2.095097300000000051e-01,-6.954840300000000308e-01,-1.007752299999999934e+00,-9.427625499999999770e-01,-1.127516399999999974e+00,-1.095153000000000043e+00,-1.095198399999999905e+00,-1.299526900000000040e+00,-1.456350199999999928e+00,-1.340893899999999972e+00,-1.260933099999999918e+00,-1.541731500000000032e+00,-1.698237999999999914e+00,-1.653666300000000033e+00,-1.682468000000000075e+00,-1.868069299999999933e+00,-2.016744200000000209e+00,-1.948474500000000109e+00,-2.068751199999999901e+00,-2.135832800000000198e+00,-1.986486399999999986e+00,-1.547190499999999913e+00,-1.683621299999999987e+00,-1.509674399999999972e+00,-8.688346300000000522e-01,-8.027227500000000404e-01,-3.287271600000000182e-01,-1.356352600000000075e-01,1.410239500000000090e-01,6.648173899999999525e-01,5.154595699999999781e-01,8.749450199999999622e-01,7.113462099999999788e-01,1.010279799999999950e+00,8.458681599999999801e-01,6.472084700000000357e-01,1.171734000000000053e+00,5.490404100000000343e-01,7.936587600000000187e-01,7.851374899999999935e-01,3.446744900000000000e-01,7.865121299999999760e-01,4.857265800000000189e-01,6.811347700000000005e-01,6.032256200000000179e-01,6.254215699999999822e-01,5.509673800000000066e-01,5.578841599999999623e-01,5.932711899999999483e-01,6.362132600000000027e-01,8.405083300000000257e-01,3.618982800000000166e-01,4.449923499999999810e-01,7.368078399999999917e-01,3.368693200000000276e-01,5.524437399999999609e-01,3.711221900000000185e-01,3.706554899999999764e-01,6.802597900000000308e-01,8.146742999999999346e-02,4.553567000000000031e-01,4.499111700000000269e-01,4.351847899999999880e-01,1.039702399999999916e+00,6.346763500000000002e-01,9.419472300000000242e-01,1.076501699999999895e+00,4.030224600000000268e-01,5.031033700000000497e-01,4.031945200000000007e-01,1.881198299999999879e-01,1.426134799999999869e-01,2.068689800000000079e-01,1.698461300000000118e-01,1.791223299999999963e-01,4.727454500000000115e-01,2.159549699999999961e-01,-1.560617499999999991e-03,2.610080000000000178e-01,3.320053700000000219e-01,1.958079799999999926e-01,2.762330900000000145e-01,3.996158100000000157e-01,3.689791099999999990e-01,3.329402699999999826e-01
3.142195400000000194e-01,7.810625300000000326e-01,1.204968400000000051e+00,1.534696899999999919e+00,1.877331400000000095e+00,2.158213599999999843e+00,2.102972199999999958e+00,1.677909400000000106e+00,1.168675200000000025e+00,6.895390200000000025e-01,1.629567299999999941e-01,-2.258679799999999960e-01,-2.649809599999999876e-01,-1.785366899999999979e-01,-2.171477900000000072e-01,-2.391024999999999956e-01,-9.514765099999999975e-02,6.718312299999999737e-02,4.473870700000000256e-02,-1.923980700000000044e-01,-5.225197900000000395e-01,-7.527116600000000046e-01,-7.633733999999999797e-01,-6.779396600000000550e-01,-7.079949800000000515e-01,-8.377625400000000555e-01,-8.970139099999999699e-01,-8.956753600000000315e-01,-9.626453999999999844e-01,-1.085204300000000011e+00,-1.178683699999999890e+00,-1.238137899999999902e+00,-1.311662000000000106e+00,-1.452596500000000068e+00,-1.641307800000000094e+00,-1.784840399999999994e+00,-1.872349199999999936e+00,-1.890659799999999890e+00,-1.778776099999999971e+00,-1.710199800000000048e+00,-1.841347800000000090e+00,-1.889797699999999914e+00,-1.725754000000000010e+00,-1.654478600000000021e+00,-1.617205900000000085e+00,-1.333264500000000075e+00,-1.071111499999999994e+00,-1.053257000000000110e+00,-9.457038700000000020e-01,-6.480924999999999603e-01,-4.639520100000000258e-01,-4.402938200000000024e-01,-3.780115900000000084e-01,-1.797379199999999955e-01,6.804162299999999552e-02,1.697713000000000139e-01,1.323605200000000093e-01,2.054071500000000106e-01,3.991614800000000129e-01,4.964300300000000221e-01,5.125199700000000469e-01,5.610527899999999679e-01,6.031253600000000548e-01,6.565218999999999916e-01,7.442808400000000546e-01,7.438185699999999567e-01,6.687943100000000030e-01,6.755765200000000137e-01,7.236477300000000445e-01,7.222181600000000534e-01,7.721753799999999668e-01,8.871881000000000350e-01,8.871471800000000352e-01,7.764514900000000219e-01,7.629272099999999668e-01,8.115460399999999686e-01,6.892300099999999485e-01,4.830004099999999911e-01,5.368840999999999752e-01,8.293410799999999528e-01,9.653832199999999863e-01,8.900295200000000184e-01,9.071313500000000030e-01,9.520870799999999745e-01,7.811641999999999753e-01,6.401907000000000014e-01,7.196229899999999624e-01,6.928177100000000310e-01,5.389072099999999699e-01,6.120834499999999734e-01,7.360772700000000057e-01,5.711988300000000462e-01,4.465684400000000109e-01,6.715494100000000133e-01,7.879818800000000234e-01,4.013653500000000096e-01
6.517391799999999735e-01,1.237034200000000084e+00,2.109447700000000037e+00,1.432443300000000086e+00,7.867006699999999908e-01,-4.594597799999999843e-01,-3.632985699999999873e-01,-5.575226899999999874e-01,-1.195934899999999912e+00,-8.249699000000000337e-01,-7.861687099999999928e-01,-1.228690899999999919e+00,-1.320572899999999938e+00,-1.383093399999999917e+00,-1.313713300000000084e+00,-1.308898300000000070e+00,-1.495236299999999963e+00,-1.664515200000000084e+00,-1.658047300000000002e+00,-1.805065399999999931e+00,-1.912730599999999948e+00,-2.329454600000000042e+00,-2.509534299999999885e+00,-2.436543299999999856e+00,-2.252260000000000151e+00,-2.601895700000000033e+00,-1.774206500000000020e+00,-1.668073600000000045e+00,-1.559906299999999968e+00,-6.604829899999999920e-01,-8.737272299999999658e-01,-3.485113100000000186e-01,-6.997421099999999450e-02,-1.522794000000000092e-01,-1.098601300000000003e-01,3.280136799999999742e-01,2.119021899999999903e-01,-7.418557400000000239e-03,3.877629799999999793e-01,1.400982100000000008e-01,2.102460300000000004e-01,3.226320100000000246e-01,4.452187400000000017e-01,3.870803700000000069e-01,4.789103499999999847e-01,6.210704500000000516e-01,5.792161099999999507e-01,6.996098600000000278e-01,9.167075700000000271e-01,6.903606399999999699e-01,7.886759800000000542e-01,8.763015199999999449e-01,8.311447600000000380e-01,7.984002399999999833e-01,7.489289799999999664e-01,5.505486600000000230e-01,5.632360199999999484e-01,9.812319099999999850e-01,4.606565100000000190e-01,6.243963999999999626e-01,6.293902099999999500e-01,6.499737399999999665e-01,3.718800400000000228e-01,6.908200799999999475e-01,5.097747200000000145e-01,5.786553399999999625e-01,4.490364099999999969e-01,5.017041100000000364e-01,5.514645700000000428e-01,5.184779000000000471e-01,4.713590799999999859e-01,5.908588299999999460e-01,5.254759900000000039e-01,5.670984000000000025e-01,6.008503099999999986e-01,5.999699099999999952e-01,3.719277400000000067e-01,7.795133800000000335e-01,8.132129200000000058e-01,8.171734899999999469e-01,8.571850899999999829e-01,5.784137099999999698e-01,7.958015600000000189e-01,3.981615299999999857e-01,4.665755200000000213e-01,5.174116100000000218e-01,3.510712400000000066e-01,3.396483200000000036e-01,2.775461000000000178e-01,6.699283600000000005e-01,3.916707799999999962e-01,5.066761400000000526e-01,-1.025761599999999996e-01,2.925726100000000107e-01,4.539424699999999868e-01,3.896852599999999778e-01
5.358112000000000430e-01,6.007662000000000280e-01,2.115887999999999991e+00,3.348071700000000206e+00,2.045147500000000118e+00,1.441587600000000080e+00,1.048406300000000041e-01,-9.357845200000000641e-02,1.080624599999999935e+00,9.942459399999999947e-01,9.955533800000000433e-01,8.798235599999999490e-01,7.286384900000000275e-01,-3.593267900000000070e-01,-8.648943799999999626e-01,-7.035497299999999843e-01,-8.933224400000000509e-01,-9.996249200000000279e-01,-1.089538700000000082e+00,-1.071451699999999896e+00,-1.080059199999999997e+00,-1.333856099999999989e+00,-1.374630800000000042e+00,-1.498236499999999971e+00,-1.510172999999999988e+00,-1.582676699999999936e+00,-1.821710500000000010e+00,-1.691714799999999963e+00,-1.829419700000000093e+00,-1.866759800000000080e+00,-1.962709500000000107e+00,-1.931376299999999935e+00,-1.737212999999999896e+00,-1.874423399999999962e+00,-1.658334500000000045e+00,-1.206336999999999993e+00,-9.884383799999999498e-01,-6.738270400000000437e-01,-3.135134199999999871e-01,4.813114699999999913e-02,3.688481900000000202e-01,5.631355900000000192e-01,7.185079199999999666e-01,9.000850700000000426e-01,1.047930999999999946e+00,1.042963599999999991e+00,8.995336600000000127e-01,1.027933399999999997e+00,1.026367999999999947e+00,9.126416299999999815e-01,6.238852000000000286e-01,7.758076099999999808e-01,9.005532000000000536e-01,5.160734200000000049e-01,8.411704500000000140e-01,5.777828099999999800e-01,5.340225499999999847e-01,8.011566900000000047e-01,6.869217499999999976e-01,5.808706500000000439e-01,4.976256700000000199e-01,4.501991799999999766e-01,5.206601100000000093e-01,4.549526099999999795e-01,3.871646999999999728e-01,3.048045999999999811e-01,2.144567400000000068e-01,2.022849100000000122e-01,2.476439400000000068e-01,2.229646799999999984e-01,-4.004239300000000251e-02,2.103065699999999982e-01,1.001092900000000036e-01,5.104281200000000407e-01,5.726859899999999781e-01,4.850213099999999833e-01,1.168158299999999983e+00,7.493846499999999855e-01,4.494477000000000194e-02,-6.667536699999999927e-02,-8.406560100000000368e-02,-4.429501999999999745e-02,-2.168774900000000061e-01,-1.906067100000000125e-01,-1.557993900000000098e-01,-3.451288499999999870e-01,-1.621585200000000004e-01,-4.701308600000000254e-02,-4.394021399999999966e-01,-3.346757599999999888e-01,-1.882850899999999883e-01,-2.558939399999999864e-01,-1.522001900000000130e-01,-2.443330400000000013e-01,-3.481124299999999727e-01,-2.828567599999999849e-01
1.468417499999999931e+00,3.253946399999999795e+00,3.599510299999999940e+00,2.393376700000000135e+00,4.173767199999999788e-01,1.071453999999999906e+00,1.685862999999999889e+00,1.572941499999999992e+00,1.708876199999999956e+00,1.032081800000000049e+00,5.307411000000000073e-02,-5.083981199999999534e-01,-4.723137499999999767e-01,-7.055242099999999850e-01,-7.862601099999999565e-01,-9.431652000000000369e-01,-1.063366100000000092e+00,-1.168249000000000093e+00,-1.155858999999999970e+00,-1.292120200000000052e+00,-1.419111500000000081e+00,-1.485044400000000042e+00,-1.627365299999999904e+00,-1.802069300000000096e+00,-1.870325400000000027e+00,-1.972778600000000049e+00,-2.073668800000000090e+00,-2.054587000000000163e+00,-1.923559800000000042e+00,-1.761052499999999910e+00,-1.564478299999999988e+00,-1.173436900000000005e+00,-6.463722299999999921e-01,-2.991693300000000111e-01,3.386650499999999814e-02,4.385650600000000066e-01,5.574168499999999637e-01,8.368408299999999800e-01,8.621920400000000484e-01,8.633230299999999913e-01,7.337380599999999697e-01,7.428636899999999654e-01,7.125567699999999505e-01,5.679887700000000317e-01,5.532973199999999814e-01,6.397094899999999917e-01,5.307800000000000296e-01,5.213213500000000167e-01,4.875234999999999985e-01,4.247533600000000242e-01,2.926995700000000200e-01,4.149625000000000119e-01,3.696522099999999811e-01,1.517559699999999900e-01,1.899920800000000076e-01,2.008331200000000039e-01,9.720965099999999415e-02,3.761395800000000289e-02,1.125386399999999953e-01,3.323773199999999900e-02,-2.367321000000000009e-02,5.014398199999999667e-02,2.095634000000000038e-02,-9.508257500000000251e-02,-3.996133100000000271e-02,3.965328399999999698e-02,3.025126800000000130e-02,-1.301563000000000025e-01,1.155564000000000036e-01,-1.423660000000000030e-02,-1.202079399999999992e-01,7.048528900000000652e-02,-1.312900300000000020e-02,-6.353461300000000367e-02,-6.006893199999999849e-02,2.015992400000000129e-01,1.256053799999999887e-01,3.596178400000000219e-01,4.861279600000000256e-01,2.231923199999999996e-01,2.344933999999999907e-01,2.824268799999999913e-01,-1.358068299999999895e-01,-1.872789199999999876e-01,-1.094738499999999976e-01,-2.050352199999999903e-01,-1.160339400000000021e-01,-1.714603199999999994e-01,-1.539827500000000016e-01,-2.585151800000000111e-01,-8.743575200000000547e-02,-6.808097700000000085e-02,-1.036401200000000022e-01,-1.024535300000000010e-01,-2.153085500000000152e-02,1.447940299999999902e-01
1.450873999999999997e+00,2.557083899999999854e+00,1.991877300000000073e+00,1.486097000000000001e+00,1.735496200000000044e+00,1.338376999999999928e+00,2.627536600000000000e-01,-1.148676000000000003e-01,1.974277999999999866e-01,4.218055800000000133e-01,5.853285900000000375e-01,6.237232700000000518e-01,4.537707200000000163e-01,5.467487100000000266e-01,5.470941400000000066e-01,-2.542102699999999882e-02,-3.992210999999999954e-01,-3.648185800000000034e-01,-4.470422600000000246e-01,-4.999500599999999739e-01,-5.141232399999999814e-01,-6.939500899999999639e-01,-8.042847400000000535e-01,-7.184450799999999582e-01,-6.389763999999999999e-01,-7.243716999999999517e-01,-8.854762699999999542e-01,-9.290151800000000515e-01,-8.662118699999999949e-01,-8.741733200000000314e-01,-9.696320600000000178e-01,-1.013475300000000079e+00,-1.053453699999999937e+00,-1.147549900000000012e+00,-1.157045399999999891e+00,-1.137848399999999982e+00,-1.214986300000000075e+00,-1.278971400000000092e+00,-1.308705699999999972e+00,-1.326976699999999898e+00,-1.301223000000000019e+00,-1.300937299999999963e+00,-1.313450500000000076e+00,-1.349906999999999968e+00,-1.415896000000000043e+00,-1.382883800000000107e+00,-1.417039500000000007e+00,-1.453874300000000064e+00,-1.130548099999999945e+00,-8.433083000000000107e-01,-7.913200700000000420e-01,-5.143489300000000375e-01,-2.259326899999999916e-01,-1.382560800000000034e-01,8.794420399999999804e-02,3.695445800000000114e-01,4.758215399999999873e-01,4.027402700000000113e-01,2.228114599999999890e-01,1.590230300000000097e-01,2.335169500000000009e-01,2.910378200000000026e-01,3.163140700000000027e-01,2.695668199999999848e-01,1.866313900000000081e-01,1.894232399999999927e-01,2.043616600000000005e-01,1.576255500000000032e-01,1.116334799999999933e-01,7.806129000000000540e-02,3.750507499999999883e-02,-8.191191999999999918e-03,1.015510600000000055e-02,9.352195800000000225e-02,4.221574899999999686e-02,-5.690446200000000287e-02,4.302654599999999885e-02,1.567489099999999913e-01,1.528332799999999880e-01,1.448568000000000078e-01,1.045018300000000039e-01,1.260612799999999978e-01,2.011555700000000058e-01,1.750991600000000037e-01,1.912544999999999940e-01,2.176532599999999873e-01,2.609723199999999799e-01,5.820762200000000330e-01,1.084883000000000042e+00,1.852132300000000065e+00,2.745888499999999954e+00,2.819203900000000207e+00,2.261334399999999967e+00,2.145377400000000101e+00,1.859555199999999964e+00,4.904873399999999939e-01
9.931108800000000292e-01,2.704843499999999956e+00,3.473342099999999988e+00,2.212666099999999858e+00,4.532953299999999963e-01,4.779334200000000255e-02,9.595598600000000422e-01,1.193059599999999998e+00,1.007462000000000080e+00,9.913209299999999891e-01,5.782004499999999769e-01,-1.975272499999999876e-02,-4.896544199999999791e-01,-4.422866100000000245e-01,-5.849596900000000321e-01,-4.443578000000000250e-01,-3.668175100000000133e-01,-4.037997500000000128e-01,-6.156595500000000554e-01,-8.337922599999999518e-01,-1.025003000000000108e+00,-1.201268000000000002e+00,-1.376281499999999935e+00,-1.413218800000000108e+00,-1.487813100000000111e+00,-1.793097600000000069e+00,-1.854666699999999890e+00,-2.073680500000000038e+00,-2.086933099999999985e+00,-2.007423399999999969e+00,-2.152466099999999827e+00,-2.092099699999999896e+00,-2.031163900000000133e+00,-1.883327900000000055e+00,-1.572586599999999946e+00,-1.305861900000000020e+00,-1.002046999999999910e+00,-5.330216599999999527e-01,-1.006718800000000053e-01,1.016555600000000059e-01,4.240329500000000196e-01,6.521376300000000237e-01,7.716908599999999785e-01,9.143926700000000185e-01,8.043221400000000187e-01,8.012731400000000503e-01,6.908330400000000093e-01,6.102107399999999737e-01,7.091266999999999987e-01,6.509890099999999791e-01,6.258406300000000089e-01,6.350268000000000024e-01,6.278500299999999479e-01,6.770191599999999532e-01,7.405869400000000269e-01,7.656850899999999571e-01,7.574785499999999727e-01,6.313709899999999653e-01,5.503831999999999613e-01,5.701933399999999930e-01,4.730323900000000248e-01,3.827451900000000129e-01,3.991836100000000220e-01,3.382175599999999727e-01,2.516256299999999890e-01,2.368177200000000093e-01,2.101981300000000108e-01,1.997788500000000078e-01,1.953819900000000054e-01,1.556324900000000122e-01,1.867269199999999907e-01,1.526400099999999926e-01,5.832081599999999755e-02,1.460385399999999945e-01,3.433053699999999986e-01,4.416871700000000178e-01,6.396180399999999988e-01,6.433982900000000393e-01,4.497683499999999834e-01,4.154958200000000157e-01,2.408384699999999989e-01,1.131244899999999942e-01,4.285921799999999754e-02,-1.164445900000000006e-01,-8.954313599999999540e-02,-6.428276600000000507e-02,-1.324320900000000023e-01,-1.653476700000000021e-01,-1.230848600000000043e-01,-2.668375100000000000e-01,-3.128106099999999890e-01,-1.985655000000000059e-01,-1.199539500000000036e-01,-7.697926300000000610e-02,-1.454157799999999945e-01,-3.777827500000000005e-02
