0,1,2,3,4,5,6,7,8,9,10,11,12,13,14,15,16,17,18,19,20,21,22,23,24,25,26,27,28,29,30,31,32,33,34,35,36,37,38,39,40,41,42,43,44,45,46,47,48,49,50,51,52,53,54,55,56,57,58,59,60,61,62,63,64,65,66,67,68,69,70,71,72,73,74,75,76,77,78,79,80,81,82,83,84,85,86,87,88,89,90,91,92,93,94,95
0.4064208265012924,0.4696071455000579,0.7638054545029125,1.0,0.7452882598290393,0.5899447476727067,0.3246127480564879,0.21695325728423473,0.42350691498528475,0.4444674793412747,0.3981307830375074,0.3892959314319425,0.40537225534756877,0.24855324500869322,0.22631548741468785,0.20195680320261628,0.1731019612835239,0.15816306182173528,0.16909474040632583,0.1602926240569979,0.13975689651181586,0.1308198318089198,0.1209000773254964,0.09817648051856659,0.07165466667837478,0.07061749475483675,0.06841759416948412,0.06238885952587503,0.0,0.021969125073707574,0.029804048705599273,0.004971845715118606,0.01976146697820974,0.06049372852891338,0.12213045075748946,0.1347923234624584,0.22457799907990905,0.31641356083883904,0.3440619878213915,0.42441377330842245,0.45957005867568784,0.5191363014465009,0.540203829656498,0.5288232408395703,0.5551273900785504,0.5656378107221756,0.5486232475591543,0.5425818351327615,0.5260327926115319,0.5047325516672174,0.5016742664228151,0.49087108596576456,0.4956040326913689,0.49997707045207307,0.47420122920262264,0.47285479839084105,0.47437450360689215,0.47778728910773216,0.4774112779221208,0.4530098070910144,0.47645694255946236,0.46697591298487073,0.4539734101642885,0.4581949969051665,0.4363983758718737,0.45445142362970997,0.4606292784486618,0.4414793600578481,0.4128346514905347,0.4324100441727353,0.44680663621233396,0.39156350659642464,0.47181394524142395,0.5160919743332003,0.4927180144523492,0.5189557005048722,0.47630622778481196,0.4516493211792544,0.4356203137657862,0.40556308830142157,0.4144451554896838,0.3993486403015115,0.3772490152316737,0.3566462787807443,0.3916790934975886,0.41407203182173763,0.38672305299110293,0.3832799891380493,0.3728721360848289,0.38010547699789604,0.40194645806003604,0.34658183003291687,0.36667861377100636,0.4121423870875095,0.3815023468892412,0.3958231284813735
0.4716270106977031,0.7570780386899647,1.0,0.8554335830291515,0.7473830453179685,0.45889183483085383,0.2323602182892544,0.491196974826893,0.5626701443259303,0.4690348267153284,0.5315056995275927,0.5113071544456322,0.3556075036848952,0.2666810801392365,0.25830869333288875,0.21814995831700507,0.1987547673680151,0.18782233213386187,0.18872454239829434,0.16738896718045895,0.15735132251699555,0.15393667306928288,0.1411960041795963,0.11205965835920537,0.07069458240980175,0.09285844514879438,0.0776282213197213,0.026057364853084408,0.0038767945504533663,0.0,0.023739327495337692,0.03504557710026962,0.039850116702514815,0.05023233201650679,0.11839915510179713,0.16625515608392402,0.21676009192596568,0.2940513505688852,0.3266339037558786,0.40028722202973793,0.41350243325374025,0.45445767486064814,0.5555531974858516,0.5086235194018502,0.5061043057950642,0.5212975262093964,0.5011557795319623,0.519014353552008,0.49759737191851927,0.49294021350072775,0.4780262799373858,0.4514712508711605,0.48457043702270336,0.5074606693166983,0.47796924024200593,0.4337320116297804,0.48132827032004416,0.4987138283532181,0.42307087140107835,0.4765651175830436,0.5225202584692998,0.48936447681690276,0.4316391571330274,0.4005404604363248,0.4324202613245749,0.41559682689366434,0.40676034272221634,0.3937005008722847,0.3970740431327874,0.41432209462688774,0.371838879787471,0.4209827257318891,0.42522110011007613,0.4770062575858097,0.5055917656352177,0.48071772220264475,0.4131012415109033,0.3186943689770741,0.3619150883959902,0.37357873783021245,0.33796292061519956,0.30358576487793004,0.3077409633742054,0.3286211478052348,0.26904632093416414,0.3152710586500925,0.3065542181827209,0.26790739154679905,0.26195492167717177,0.25141256783883204,0.3305903133201947,0.27450782058387196,0.2214860621080463,0.2835297020449144,0.267062670656155,0.3139267797787004
0.7543369033271462,1.0,0.9231131918386215,0.8438687254862653,0.5528192586268299,0.4766877859984858,0.6732685750135026,0.6436790637669606,0.6393030139364194,0.6690769227140758,0.549420010047241,0.4426593735333033,0.41039270985407916,0.36979575798885367,0.330561125668342,0.3206815953886466,0.3087594676377427,0.2502204100500711,0.23247161465765084,0.23459270702387044,0.20953187876329313,0.15528362700679482,0.15881921806050509,0.14680296322851338,0.088243831913905,0.07994477319414994,0.05635809687332688,0.04398395271664657,0.0,0.00097634653075368,0.005769455915961619,0.016370568659683837,0.024918893294056277,0.07177735691526116,0.13501382321101324,0.1811018285506737,0.2636018688811477,0.3385746616131718,0.39854194100429957,0.44185978863057995,0.4866590622103458,0.5252642410205732,0.5081154857227763,0.5194428073783541,0.5406807217975599,0.5102642367752602,0.4929704823383184,0.4799193598067911,0.48544059321174443,0.49132948582183367,0.48363573704530927,0.47998286591650413,0.4721646917313094,0.48671277957155357,0.4841444255501808,0.4882983285259094,0.5227946329808938,0.5241779276740166,0.47848651193286745,0.5240966478536405,0.5113333858494282,0.507885870890596,0.5143160918591405,0.48334859350419934,0.49494187364533243,0.4744109698889379,0.4710819218060505,0.4961903749318981,0.4931134965577587,0.44706783491392627,0.453036290351111,0.4426293450189506,0.4551411599610375,0.46730719887169014,0.486194415526525,0.5164568088925158,0.46463188748976997,0.46530067524062674,0.4258506440375757,0.3780247237598379,0.41580097613898215,0.3832768194114581,0.4063955811008097,0.39378915228173783,0.39709400660853733,0.44338040316322996,0.4127322064071208,0.370907018681736,0.4297101100243634,0.43082079543015633,0.38355614591612675,0.4174618090222337,0.4284794811284042,0.4114555591100881,0.46224256492380844,0.48047870150024646
0.7711709175968379,0.6879899357213374,0.5011352991687943,0.27620423761339363,0.22007783037804984,0.38919910784676537,0.5700219342534938,0.591438593002592,0.5507336781304879,0.5950120366117081,0.6499304347456367,0.579413287745583,0.4405150567620149,0.3953541834932028,0.4515369202071007,0.49219391103291477,0.4680697121041332,0.427364610808045,0.39091667780032124,0.3448932698161745,0.3027417833220198,0.29470407073122196,0.3027417833220198,0.2887311443996028,0.24763247263778326,0.2059704733844604,0.1704794350633752,0.13746299524798722,0.10434827401643765,0.06896994044080773,0.02719523644202959,0.0,0.016173359914558927,0.0626815651045699,0.08781547557821279,0.08241794523811818,0.0933263974889671,0.1436925979703007,0.19252315541235432,0.21630552470747383,0.2531433945485375,0.3273898892461652,0.38540574934837457,0.38112686757176056,0.363362022458203,0.42322456911121387,0.5617555383049775,0.6873128372700137,0.7325943988096338,0.7373030565520426,0.7711709175968379,0.8314293241329281,0.8538348803525965,0.8340696502898648,0.8428130201781069,0.917452516257725,0.9916081407102066,1.0,0.9695644203612276,0.9631619339231635,0.9695644203612276,0.9407337386365179,0.8869004674172576,0.8738781110933227,0.9199660512113226,0.9715348237549291,0.9750753749779439,0.9442853444747283,0.9254769829338654,0.9328589573371984,0.9364988463789512,0.9180714602378084,0.9034332593142901,0.9222735876625261,0.958542576539719,0.9727052393152484,0.958542576539719,0.945490107836463,0.9530316382759837,0.9703677442027456,0.9750753749779439,0.9509363929542853,0.9034332593142901,0.867567891444987,0.8758786039721718,0.9075646699077184,0.908944191036833,0.8779120710020273,0.8758786039721718,0.9303529251313103,0.9860972187994524,0.9892845129256416,0.9640534984504732,0.957015044579044,0.958542576539719,0.9348052433544347
0.5183568974878787,0.723925825072828,1.0,0.7427064444220102,0.7558320668589343,0.5384169115487004,0.1742395742099428,0.3798259695918815,0.5174310660485726,0.45399136159867726,0.41245926008791195,0.44594773303356317,0.3897677272309731,0.2959976935159239,0.2543676095420774,0.2813072216780399,0.2491710299779265,0.224993356125325,0.22053480235268652,0.17807908802929306,0.21131632392276914,0.18053300154887314,0.13416497727622057,0.1549955662027323,0.12804508194112096,0.11640645051563925,0.06669493382955477,0.07142599105600766,0.08771957300940691,0.0,0.06555686219939988,0.13816412598714517,0.0901724315126115,0.12019565096784107,0.160426390325136,0.19010218197395382,0.32466325241539634,0.3568525460000782,0.36950609954079505,0.4903895811675939,0.4834573032144348,0.5400588408098524,0.6116436336582967,0.5740685578744694,0.6142039765022388,0.6126910102600343,0.6139512818903711,0.6405648521294505,0.561554941341999,0.5748423087032485,0.586381308384015,0.5313713011898948,0.5695646020178098,0.5419492100564889,0.5011648763220674,0.5386075912066204,0.5429122926688186,0.5425793295007135,0.515121118608397,0.5010950033151161,0.5492374523537324,0.5214462910262672,0.5170034933774985,0.4880778001817175,0.49248348490098764,0.5247717735825719,0.49497409843848483,0.5098787094966936,0.4680046839089084,0.5160569690652828,0.48704956485122,0.4552194133927053,0.5485570832071407,0.5671250258069739,0.6041542215661718,0.5754700034288033,0.527521577358621,0.5534401883022331,0.5180329565287779,0.4819347799790634,0.4572770700376259,0.4472228421959257,0.4500618457875288,0.45544074855230837,0.4279653993555305,0.44591502752592294,0.4350506240512811,0.42353975147088385,0.43194476971084367,0.4514725754859669,0.4585766555798998,0.40715575588740066,0.4445811921503144,0.4645423966515963,0.43369282234160883,0.4630811389447472
0.6905959943399582,0.8148270194017273,0.9999999999999999,0.8563033210442694,0.719242067984261,0.4547399198283869,0.47515049104677864,0.4339257057764033,0.2984203613771817,0.3771590497945872,0.385394745371352,0.2914677796570719,0.27196548653193053,0.25869527999168984,0.27342146191254063,0.2744434634079103,0.2348925361713179,0.19896246577993015,0.20033530139195538,0.16913016784129975,0.1462778323482003,0.057826627538973274,0.019604047541938896,0.03509665629552705,0.0742114658846561,0.0,0.1756800830947708,0.19820718226567813,0.22116609033423457,0.4120720026479071,0.3668101268101153,0.47828914147926466,0.5374096672723961,0.5199400875767196,0.5289437339676831,0.6218840638956608,0.5972389722218082,0.5506873352937932,0.634566073022824,0.5819983128379052,0.5968874461581382,0.6207417846043657,0.6467612698322944,0.6344211865346091,0.6539124382230341,0.6840864433698464,0.6752027054533957,0.7007567225942392,0.7468365116412443,0.6987935415618398,0.7196613348116377,0.7382601786148723,0.7286754898825671,0.7217253448347661,0.7112248875766516,0.6691179335388713,0.6718108724573122,0.7605320406065073,0.6500379934096928,0.6847923885149191,0.6858523430917813,0.6902212731935438,0.6311948604722806,0.6988910593950761,0.6604635145041645,0.6750836799542143,0.6475715843595692,0.6587504977879557,0.669312338811898,0.6623107965341689,0.6523096533358191,0.6776739156818838,0.663796166927675,0.6726306768468627,0.6797946441348341,0.6796077759901772,0.6312049849730758,0.7177165391934708,0.7248693907559359,0.7257100363348593,0.7342026458950115,0.6750323930962026,0.7211737654274999,0.6367732035835044,0.6512943250963196,0.6620844725519264,0.6267781159828001,0.6243535591143706,0.6111721340456736,0.6944567148299994,0.635395517974767,0.6598058294795492,0.5304897834447814,0.6143615661723999,0.6486129136755346,0.634974084037262
0.5594523039148529,0.8555787030575454,1.0,0.7573580071663171,0.4846802598318453,0.31657664290780696,0.44921664243751175,0.5663250836632894,0.5352262343564083,0.5584167085279967,0.4752691067432578,0.4172715701866663,0.3636734345955113,0.32172028401311425,0.32403427439472177,0.3122366147593959,0.3034980810750698,0.2822399749560042,0.2883934386506391,0.20701485716127743,0.2163995230553052,0.23308205634377363,0.17583199125967353,0.14929630724476062,0.09920107442198955,0.11342880714344084,0.07828849314278125,0.03809163023728457,0.016514036811574817,0.022498815210482193,0.03506466967196176,0.0,0.07587972933267884,0.15352514835223252,0.18271326980221947,0.27071416577678487,0.3325939129401907,0.42570127022906684,0.5177512245290693,0.564722813757239,0.6482840903547563,0.6421962811098981,0.616009658881452,0.691362262480993,0.6632314097054516,0.6397706287203879,0.6655238066094923,0.6217287263562321,0.5971492502315561,0.6207990427624825,0.6058313874287223,0.6177701823293057,0.6119901867153531,0.5812123722509195,0.6508329032351752,0.6197766608008246,0.573221882335344,0.615433216394131,0.5991033655419332,0.5624277072056031,0.5966942182544053,0.5932020119756302,0.5816972103516169,0.5674026922139717,0.5765896472696778,0.5694171925660507,0.5345363993463053,0.5736519999593552,0.5482330722844825,0.538713210158827,0.539767196889418,0.5224562550560136,0.5320962604644079,0.5162166276823905,0.5904006217862596,0.569411967929452,0.5905869412038006,0.5818564780646824,0.4592011914118031,0.4944709309901422,0.4670821171551176,0.4308262221629941,0.4333509090575694,0.43614737282730354,0.41729934796768836,0.4283354720472793,0.43032578996252313,0.436214028795534,0.4302047823956376,0.40552559824716944,0.4509117689689055,0.44759684547187323,0.4218132471167072,0.44151207543160575,0.43315476522091007,0.45415234600393356
0.5502408114429129,0.736955601966591,1.0,0.7409323105591181,0.7737334646655909,0.5650612819105557,0.1663595941515275,0.326084565752479,0.5560401674846446,0.4922125070383586,0.37733248397430125,0.5131235176983885,0.4381246264243505,0.2682115192120098,0.19828216418278305,0.17662919901054547,0.21032046666355664,0.24847076267793772,0.036923014693767686,0.18117639266370145,0.25597994784118316,0.06682360102812196,0.14693861528321567,0.11956443234392211,0.04680227981762636,0.10155122110420922,0.1403773870880619,0.05958467008247326,0.0,0.0648688121982744,0.08564719983985752,0.10847851534166647,0.05196392396456451,0.1465293510184199,0.2187491708530617,0.23421635089163836,0.2990952945329186,0.35312023616790034,0.4202443344316451,0.4583160081892918,0.5277191719998285,0.505398842240752,0.613548590765081,0.6071760026223261,0.6459405253607131,0.6082332849784606,0.6555582398456952,0.6285656824071371,0.6024815599319288,0.6001273292648862,0.6068263442324628,0.6850787777234502,0.5562763319752071,0.6040363379100078,0.5767267605017873,0.5837717235432252,0.6831427216205739,0.459791124979533,0.7149842017472499,0.6446869116653038,0.5000949359258688,0.6075047822265079,0.5993704354561974,0.6234428058411242,0.6004151057215225,0.5900043255763292,0.5559838307795838,0.6168958797313748,0.5908781934371222,0.5616967882451903,0.5670414100036214,0.603728187748042,0.5685817963883856,0.6913516625785349,0.6620012685828278,0.6641062751289463,0.7436301642254911,0.5877215414020864,0.5856660455172872,0.5753971950820859,0.5591042022749202,0.5962626994942184,0.4745812070853524,0.5214967632128114,0.5532640050523379,0.45027362056748566,0.544217455461876,0.5231920451677374,0.5120812811957711,0.49789107854837006,0.5510125656958759,0.5790714244781161,0.4580639010611951,0.507350236163425,0.5379294757370374,0.53627161874438
0.4588171275156409,0.5618702378189198,0.6764559164563406,0.8843259437973053,1.0,0.8721656968463226,0.6796288062772426,0.5007433273619372,0.29867836779776386,0.27064377408731416,0.38615292337109547,0.4240918545381221,0.4357969341678746,0.4632255858872193,0.41762514119225325,0.3707634229075893,0.3954354079991085,0.38247064523752944,0.30531394101304693,0.2644514276098958,0.24475729033029778,0.21575134803730045,0.21942297341658276,0.2149599663897963,0.17804595094184836,0.16731628218912314,0.18370624140032157,0.18121465476599202,0.15103168344866638,0.15296691724293612,0.1764828677221895,0.1319556654714118,0.10574037663920013,0.1282092388703707,0.0630279678150969,0.04173523445327887,0.12689203049725056,0.08541946089773728,0.0,0.03409012068132933,0.04282847175093707,0.004261377834639091,0.023103535917352425,0.06404825390275626,0.05913318683817326,0.02323664472368636,0.03607414324344688,0.10203980087688347,0.1261365261922364,0.11178755886051717,0.16360958574113285,0.24756933213599835,0.25752428775513664,0.27591495092802387,0.3525704385534793,0.36834103775793003,0.35412847243755835,0.38737564676549185,0.4084592275540052,0.42407147679664625,0.45527277005979255,0.4520375983504448,0.4356323825248515,0.44638119199626375,0.46277265514737054,0.45204941817682387,0.4189058445074504,0.409337806422464,0.4166910619709944,0.40700142565035596,0.4067632159271691,0.40356651341758304,0.37498567253330245,0.37495068246013424,0.39678717201477454,0.39410239261008473,0.38403410950438666,0.36779036749130617,0.35386883571249445,0.3704072358175383,0.3831310755053491,0.3666116964664904,0.3505779280269584,0.35333583719999595,0.3605196335121181,0.35201001384673974,0.34167918738058567,0.34964096057838473,0.3430200703818106,0.3009186574864113,0.29735858063710685,0.35220982248005067,0.35504895913460244,0.28259759286041986,0.27174655413220006,0.31784436224747087
0.7447688447574158,0.9483796295349745,1.0,0.9095318339118741,0.7059346658646563,0.5378717030031638,0.6725319430910632,0.7694943940370988,0.7214365977638303,0.7762639331250887,0.7350543094906975,0.5654639522621151,0.41956126731277305,0.3935386590423881,0.38023835207303475,0.351066361728237,0.3347586669670798,0.3170855944397942,0.3023555389628631,0.26294881540579695,0.2505098913483057,0.23792234865290462,0.19953253314937797,0.1607952865667479,0.10296284513606713,0.08355346365866412,0.054722654191070086,0.006858886102388773,0.0,0.0005893222752942351,0.03073923716050686,0.07046394203934453,0.11667967684595631,0.1857068493789258,0.2670725992539013,0.33431853376029075,0.3992385078680576,0.46464017892301884,0.5157813488414126,0.5618389578335251,0.5830482625174759,0.5955162662680059,0.6039131109485464,0.6175606281851598,0.6061117753640226,0.6062151255294884,0.6050919129298011,0.5916568759785747,0.5951773998260493,0.5981472271143858,0.6039419698297418,0.6074049701474655,0.6008258342496343,0.6136432441185334,0.6189216346946111,0.6049111620795733,0.6183895231322896,0.6146635195526843,0.6116428605601834,0.6120866535188207,0.5930989940384892,0.5966065983485728,0.6058222419680714,0.5803857644240226,0.582656973708261,0.5821275773137913,0.5689069813753389,0.5807267796923437,0.5581305435528872,0.5642473096734806,0.5714759799650054,0.5723620140657144,0.6058540204725292,0.6235992964280413,0.6335988650271251,0.6298012816082954,0.5842830014544959,0.5758755721173525,0.5645702142815375,0.5289554516195117,0.519610794386963,0.5162770475084859,0.5260841575271691,0.5128170355110424,0.5174442564590531,0.5117012442338463,0.5131284319374072,0.5181794090093685,0.5138740671210756,0.501119661454553,0.5228540646348978,0.512726800751251,0.508730173447703,0.5146113558215203,0.5369648369406764,0.5938027602298243
0.6928158924837851,1.0,0.9614929561823,0.665215053578604,0.3994834682317951,0.6607051308296821,0.5623020406615437,0.6127192898289049,0.5258684732444525,0.2053193968642215,0.18426280806121575,0.12384098640013896,0.1001598862179372,0.0912866438906681,0.0761402193901029,0.036685505674153185,0.021381038955166964,0.03450225191929612,0.002200693614688054,0.0222011082541273,0.0003093335233590455,0.0,0.033784842344813104,0.041236850694692906,0.06574245827638553,0.08228409239958617,0.15940648635685178,0.21200473272373,0.2906791408545802,0.4132108584067782,0.49755415654680774,0.5773570736290254,0.6516033367431697,0.6918920799804056,0.7406421139693797,0.756750606149728,0.7385589779283677,0.7104520080373375,0.6969708713710323,0.6587011096605676,0.6144918880169306,0.6002119807669808,0.5793104754487092,0.5773632973878444,0.537768548056659,0.5455111207235229,0.5022328458819584,0.4982640046814668,0.4940941925370943,0.46917828985401255,0.4855583062749845,0.45788290103004564,0.45691203424296684,0.4564062845587127,0.4584545888032141,0.42208885744018904,0.4232850328393394,0.4406007083666842,0.4130003550897147,0.40851787840875553,0.42020022876012075,0.4242381557671189,0.3992256143826128,0.39970849388891266,0.42435617673683135,0.37984018462498204,0.41472814477709014,0.4181541098113172,0.38169358958050675,0.40214780875037154,0.4117126308445278,0.40646398632481623,0.4021399197662267,0.41719274014265056,0.40352600877972966,0.40898173346580957,0.4121644545027499,0.41260563830459973,0.45866497768812675,0.4902792679967841,0.4957056501707887,0.452878325931811,0.47208203693395595,0.40551394777272465,0.36990791774845366,0.3757310265211928,0.35203523685131977,0.3799240397216248,0.356714695040506,0.36496166304169697,0.3546771422508108,0.3977277852492749,0.3792198465188154,0.39056484309699824,0.39625117648731845,0.41462609909403364
0.5416546084003857,0.7696973659837318,0.9999999999999999,0.9756299277984142,0.8733257972744801,0.540496594055372,0.3839264616192051,0.5514657508972853,0.5130527440516967,0.4889284934612961,0.5041451516468053,0.42810421390890996,0.34689052124025654,0.2966298089274854,0.290927953789863,0.252387018128195,0.22251193742985695,0.2501414242929768,0.2047573193976224,0.18692809006418973,0.18474131713012393,0.15398098297676388,0.1663064274033497,0.125142648344266,0.0962732533526317,0.10133408025838081,0.06972570786936805,0.05337821453724095,0.04166694580388114,0.04435284560596775,0.004135235585626451,0.0,0.017015392558000664,0.019698930074900478,0.05472023244295665,0.09985433005306044,0.15247020932301317,0.24278277121188604,0.2923826600811323,0.33230254096437817,0.43463609301210016,0.45606142723992754,0.4675538671614325,0.5082367569323519,0.510586381747021,0.5057581052080987,0.5093453607607192,0.49062087701646184,0.48521399378619334,0.48134937642407266,0.4586988798947956,0.46068207367520875,0.45943360779949793,0.4472011506691145,0.4462157123302114,0.45928769608743375,0.468479524920826,0.44145238202410964,0.4587875117276847,0.44288292472166696,0.4387849006643392,0.4444330987085848,0.42691414630676733,0.43032582316734047,0.4100563495448291,0.4126225276263254,0.4054790621159383,0.3802714225077905,0.3905523153799843,0.39148146673770495,0.3966493494552653,0.3870546439564689,0.4033436412016568,0.4579984291172614,0.47152710165823003,0.4705815933211258,0.4496729517663258,0.41905437687059993,0.39823021469425907,0.35890723732389923,0.34612712109909893,0.37718389325305696,0.3642446966466863,0.31091988658594993,0.3453868898081254,0.34751984527179663,0.332490726508075,0.32756269324946186,0.34250991989066454,0.343611202480488,0.311961993931843,0.3249826828808754,0.3303216467209516,0.3063366805253449,0.3535416437012867,0.4059548909463039
0.758446925268975,0.9848752339357463,0.9060494720556249,0.8676814633418616,0.95320735868843,0.7918904255049327,0.5813181574081268,0.5955676378116456,0.6793879341179422,0.7136002294472555,0.6716676201173059,0.6105547834530364,0.6521549049568316,0.6795853153756423,0.5434048417984239,0.4341011040788648,0.45112408759816514,0.4415062875817489,0.4085313004081481,0.40812025151125836,0.4130403763462227,0.40913183451358837,0.4098460687311261,0.4089845955395485,0.3509496702881481,0.28586009069647195,0.2699655759217982,0.2203371246019023,0.16092692377514128,0.14508245142893772,0.1261083926090384,0.11011328870871462,0.09175351405391902,0.0552272843921745,0.04081006724048786,0.04556459722110995,0.04083924991976634,0.022874302686244408,0.0,0.0027303154964670173,0.03285148377822483,0.034990406911896366,0.0352508292474254,0.08070194104509637,0.10240416847487771,0.11447433931312812,0.1762159266631531,0.24012538516643164,0.2878581930484411,0.32142133228392183,0.3561802548943522,0.41496497529283033,0.4600454775484592,0.4958682593502902,0.5217308409344767,0.5326346632114107,0.5677686668792916,0.5827268145735055,0.5750350441789317,0.5881771255325526,0.5763394250657696,0.5589204710329081,0.5697891567648596,0.5659811890795967,0.5462270889755676,0.5324854296299506,0.538762756250885,0.5560828761130608,0.5482175598946408,0.5238724277053417,0.5176819975671282,0.5276595581088306,0.5322144800610155,0.5275344570304145,0.5234447703939746,0.5280088191105259,0.5248070148670398,0.5077446611923389,0.5094738784814262,0.5082638083251668,0.49140101874261943,0.5033325246727196,0.49995687254343746,0.49792980968998757,0.5172565320771817,0.5131863596412483,0.5712514835984854,0.6473613840208929,0.797158985039895,1.0,0.9026683753221079,0.8336744303411192,0.9393441381308826,0.7804338398454561,0.6664634397197184,0.6492716787115325
0.5681650220986426,0.5779001364565635,0.6216446935950855,0.7931321118863235,0.9648935404329939,1.0,0.9162892698556825,0.8028423782268744,0.6911768154041105,0.5386073041859964,0.37426573829535076,0.3215576951933492,0.38425033043712464,0.4202813270341332,0.3764389070095779,0.34484003988692974,0.3688326563096124,0.38310125587710103,0.3612609942828443,0.3236069684938208,0.27375046658299684,0.2463143110841673,0.22792000127771772,0.16620697308622567,0.1477885895632307,0.19287270411916874,0.15453626929435077,0.10837830386758651,0.17199393724881645,0.15991622793260857,0.04597866259945943,0.027214950617811984,0.055906558444493215,0.04269446201117527,0.04563869841924667,0.03431861454620461,0.0,0.008762609513200736,0.01411720312444703,0.0032841763155310733,0.04707299967391987,0.1007045215138877,0.10837830386758651,0.1160920149001693,0.15498606768243606,0.22332497492988693,0.2798116837285512,0.2841740678740937,0.3218507013053741,0.4216192047770332,0.46182579430521403,0.46635510265942476,0.5039761391069539,0.4887294519615273,0.476207675054246,0.5684899662992241,0.612296460221885,0.5615966403402768,0.5756268620539147,0.6219278279784161,0.6075753126488375,0.6035741410515898,0.6300601906022794,0.6239962670447521,0.5968455882499292,0.5934672530704912,0.6108595035280204,0.6135619032149213,0.591649347652769,0.5780175947361914,0.5875230014676763,0.5993737629694782,0.6075753126488375,0.6128905601272747,0.6058671686207284,0.6042911217696546,0.6214881076374266,0.6258494553364109,0.6141436944072033,0.6150536677853331,0.6283757756176214,0.6535539873846734,0.6686453361919517,0.6472199736213429,0.6601223691430393,0.7105915226244632,0.672292089184503,0.5944385491321058,0.60137956376911,0.6124926738762893,0.5878701673737401,0.6017745785534012,0.6182954590193643,0.6174278852863861,0.6195649968258521,0.5515889551011837
0.873483356220119,1.0,0.9183893523695276,0.7980339637334808,0.6491953899164191,0.5107337519983243,0.4031433401652136,0.4099942192185295,0.45853224343604393,0.4307729713826584,0.3622745997089535,0.38853872590969185,0.4550094385580558,0.45857443971214445,0.4191558169378546,0.3389211638500439,0.24423348138488646,0.23238313062909385,0.2674477644351573,0.24449509923892962,0.20994301217842914,0.22803241927785275,0.235495207411021,0.20378100587586717,0.19969044408582504,0.21291679461883498,0.187079954722141,0.15574506740628846,0.12941119598681283,0.09067956754300194,0.09394255394543244,0.11138545416980378,0.06822560107551273,0.029004463165309025,0.026294036451403657,0.007936240600275812,0.0,0.010229211505542735,0.00559495474687427,0.019476970009948524,0.0479992259139187,0.05286547817652271,0.07352854613856391,0.12682393836603922,0.16981107729849926,0.19907304919171004,0.23369407273210852,0.28646699087933647,0.34908441995509953,0.38425203840792355,0.40881266224341484,0.4571802425258594,0.4873659708398088,0.49518251024003396,0.531071649366853,0.5588619913866958,0.5484258395775693,0.5610330102330066,0.5946111270895921,0.5859183963666741,0.5589685302967048,0.5714389220144653,0.5992666884895289,0.5928302161162178,0.570910977823622,0.5770065026528597,0.5900688519418251,0.5767022886026687,0.5671402264421639,0.5701751170845766,0.5598274528204924,0.5740087145404988,0.6145890702426847,0.6056572564275566,0.578263785326478,0.6001036468180432,0.6357889654364126,0.673058464725259,0.7102008088068885,0.7077588493630214,0.714014059545216,0.769631710016508,0.8050218860695311,0.8104555903313256,0.8308103953144237,0.8341774185092892,0.810777306118146,0.8146757152241579,0.8265199441671831,0.7817640488994386,0.7494735672870845,0.7977337357973748,0.8207360219633577,0.6618216797861642,0.48093186186834846,0.46000009448372847
0.4895190300501745,0.49435013551325147,0.7851010042755189,0.9999999999999999,0.7118734737821444,0.36326034476052377,0.12251599166860211,0.27183908798980716,0.4278115425501456,0.4178697195913795,0.3633453377700363,0.3142805203069796,0.4027076632420855,0.2137819548743074,0.1924990692166137,0.1948492086120177,0.1682598423204043,0.14291254085312236,0.14610103854298034,0.16734031344349834,0.14110321516135826,0.08516992741345392,0.10764273760135679,0.12154257926179524,0.07174490286443869,0.08289171982415933,0.028969853667488055,0.003020165318477208,0.03890696951636813,0.006922288490067319,0.0,0.08860578167476202,0.060676251551834426,0.08150971086848152,0.048172491649825955,0.2768614790508226,0.3161060185233919,0.30297758482484505,0.4355253907330481,0.35110376127569315,0.5745836522110985,0.5000017674992315,0.5819581181445013,0.5957624551210107,0.5546643035556559,0.5617185646995426,0.5295020389139498,0.5618403205732206,0.47682585656894905,0.5373481938397555,0.5257009282301244,0.4788450480644072,0.514042451038778,0.4193236659524252,0.5205812724516262,0.43993136877006905,0.45465404198144754,0.5431650300780961,0.4698884799439416,0.4257530703906661,0.45686541682260595,0.48407522013857635,0.4706057990697914,0.44616649014071375,0.4426247893652314,0.4455705946658776,0.43089009506868825,0.4625645398518256,0.4466762428916481,0.3880136720451649,0.4736399420036281,0.3970896150479994,0.45478058148820966,0.5544623233741937,0.5064972375872093,0.5512590791041574,0.5631135602018449,0.523753980232826,0.46588741041093246,0.4570448375920172,0.4634278521745018,0.41341994228881696,0.43775045762738807,0.406522367058861,0.4128442638696056,0.46463132691001335,0.47476453811978836,0.4208229887034588,0.39454821973072635,0.46264961311737507,0.466568636717204,0.426130378283657,0.4792061722342332,0.4500491334923671,0.4415210990134778,0.494419960131787
0.9048016327983792,0.870388873564758,0.8761375963988194,1.0,0.7018267636875087,0.465274533174589,0.4607236377704476,0.4146238033591865,0.27014865532955157,0.1887169869018338,0.1988253025585619,0.1623401064033227,0.13590801497084348,0.09825603068194533,0.11872108916675989,0.09053747161241482,0.04791712014833366,0.13725127540341875,0.05491908271417478,0.06827849840359762,0.11399119092584287,0.004142428346959048,0.0,0.06961651533965074,0.03910930178657818,0.02803629292727222,0.14871853791929246,0.17424687527263977,0.2418711505465133,0.2762497235047002,0.3378163326544694,0.49657226243215397,0.49710488711501055,0.5717793298723318,0.6794453173813537,0.6729259503727288,0.6842006840339496,0.6548835040480674,0.6258207415978476,0.7133647693434348,0.5720547015657345,0.6002459420183848,0.6048861257963285,0.5695874337623013,0.5748187821164161,0.5592321494193819,0.5585779108676092,0.5874819848440919,0.5598865928640859,0.5662816912082866,0.6008513609737569,0.5401143522871779,0.6057797079328374,0.6220519850820321,0.5908362451629846,0.6725588307090882,0.6886035907816688,0.6430986574886384,0.5741768635783207,0.6543172284551778,0.6731751905063631,0.5997214755992347,0.5841130251097388,0.5040085539494104,0.492437315981913,0.45375510390495083,0.46592129181247843,0.42645399294463304,0.44209156665100957,0.4724836030576194,0.3914480708779728,0.43422891409390174,0.41679793987868574,0.4165239231224096,0.39787504879976804,0.38901449584441883,0.4207417013956513,0.4200012579985353,0.3948577954930605,0.3726043543933891,0.4318387400098172,0.441234177859402,0.4102674271352267,0.43616744158788934,0.4364533342028431,0.43591883948643695,0.4754218221106351,0.46829435711648226,0.4555614156449192,0.5146189498201789,0.5788513415860387,0.5716900890865653,0.5678451696821912,0.6046475797518196,0.7305798514019524,0.7578900081869047
0.5550351617965159,0.6056891383765862,0.6289291190985031,0.7226870088033233,0.8883269002705767,1.0,0.9889280540674965,0.9369721359541184,0.9152245315962976,0.8694793615696736,0.7507595732713563,0.6070929287761737,0.4927711364778363,0.432860876337015,0.4567897743871551,0.526047565964275,0.5223338335024632,0.4310564354465246,0.38368990766932076,0.4369772447261305,0.4845670009140073,0.4512920303467634,0.40249141499255303,0.40439700517013244,0.4124070558281967,0.3685553216515828,0.318568437928309,0.3255532929385779,0.35505838187177713,0.339101438182859,0.2884434649595246,0.25171175631166387,0.23811144809693355,0.23922937519913795,0.24781106136671338,0.23415743717550047,0.17676366713146802,0.11723718693720142,0.11126757040123769,0.12990723477739896,0.0954027405642674,0.01891769656320219,0.0,0.057393685623552126,0.09229144597931244,0.0623481236681836,0.044273076793711896,0.08167237149170142,0.12135688415915002,0.12649900226100258,0.127478813014279,0.1521392127488077,0.19210033578468194,0.23717780423841464,0.28420341523497306,0.32403930048834584,0.35106213182951135,0.3782759622857281,0.4138972972427783,0.4370859109905113,0.43322868437301826,0.430441775483555,0.4631616296298469,0.5094586527815416,0.5230772469166198,0.5115309289758503,0.5236122306081381,0.562852596020854,0.5783313310128365,0.5595428910913156,0.5531160621204995,0.5689692463743736,0.5656047103428907,0.545849418211817,0.561917830258584,0.6110086372370653,0.6317677888503385,0.6114664917118862,0.59916596342185,0.6073849747629418,0.5902486503053557,0.5456542247318507,0.537963316813134,0.5714803157876918,0.5679347844680713,0.5221914472545061,0.5232426910636523,0.578309841557421,0.6016529574471461,0.5813803943742726,0.5692104845615603,0.5672518361121224,0.5685193185383332,0.589928276804269,0.5858237419448977,0.497605892940524
0.5230331305387592,0.6946104896963063,0.9796482279924521,0.9999999999999999,0.7355169007780161,0.3489194249417555,0.424249981020136,0.6379593720195681,0.5802584029393482,0.6268360843591685,0.551433230815707,0.3770506260191791,0.315839849094265,0.2938739226950141,0.2599717496587578,0.2567032490363764,0.2363764810225085,0.21791050677818385,0.2304037056602699,0.2004216099985923,0.1877282130932591,0.17071747049026564,0.14340196663023586,0.14217357401909686,0.1003396604818671,0.08237114649449817,0.08194382276603046,0.04808113575505851,0.019165411886772454,0.007859502347967284,0.0015082862922677354,0.0,0.03082456437258102,0.08606943229645281,0.1380402934603297,0.2077313091835653,0.294913621848354,0.38042130750701064,0.4631578361531611,0.5254530987791202,0.5718504477666235,0.6028448186553081,0.5986403042946686,0.605955557066915,0.6130257540937193,0.5769045917826678,0.5627474262513661,0.5705725789997295,0.5662321213635766,0.5576884838884679,0.5587651087625286,0.5669434332834057,0.5718257126543497,0.5763213464948145,0.5653076952276712,0.5638452057654499,0.5685088509432201,0.5619445305567901,0.5607636172615535,0.5490017540557596,0.5648168364046443,0.5356445344318456,0.5228682212229674,0.5397529039191836,0.511544249180307,0.514818281642201,0.5083068142456532,0.4927215820032929,0.4982227472878564,0.49538476336063786,0.47408674825899283,0.46735767672230394,0.4740306963712081,0.46376906685498903,0.49777251723608884,0.5516028712580011,0.5632051177621474,0.5413042626401938,0.5184778129344608,0.5074894543130949,0.4723903912857117,0.4374539769932415,0.43082724772992914,0.43617842614223185,0.4167607734452723,0.4093896067846686,0.43740314733593877,0.41881522726805415,0.41565762816548535,0.4310783714169575,0.42525920286153074,0.41761031986606534,0.41369363929401226,0.4440219695879313,0.44499866567602314,0.4231794194217784
0.47756648651024597,0.9348745924008006,1.0,0.9274501045517067,0.8770204238655481,0.3702378246909136,0.555412357039574,0.5216332043786385,0.44829383494393055,0.5714251048041514,0.37181123828384327,0.1815713385964589,0.20305517490854075,0.18753331032621595,0.16807322915979866,0.11601572562210788,0.14918626677049568,0.1388809789548235,0.10291333068414893,0.10038110240523374,0.05207330360623691,0.0562893875612277,0.016814044874966627,0.0,0.036150339038187596,0.021100278758352187,0.08169738275230459,0.11268842522221567,0.16974441310170196,0.2863049440948828,0.3337306159591384,0.39926912011239823,0.46161520022032976,0.5378876991318475,0.536034646105194,0.5540101425352298,0.5990051084908341,0.5820308394370503,0.5535485013595385,0.5616406252629632,0.5491481387103461,0.5406725760506996,0.536119198251459,0.5364142655215378,0.5410134437199776,0.5503710877753206,0.5223232614826205,0.5411528862547521,0.5135347050089583,0.5163950341849728,0.5207626384213712,0.4947851873763392,0.4909450599145331,0.523699463292659,0.48129888641196084,0.4914214379210753,0.5135715579758567,0.4692704892536764,0.4781382173364767,0.4716939637600282,0.48153141867389904,0.4598260364934064,0.48133048654905314,0.46674380446246994,0.4979549543609674,0.4611858052421776,0.4933067365512806,0.48205282885575623,0.4722493199337664,0.5168961794919466,0.4608764422759939,0.508720770615674,0.4899959985039434,0.5575137958555905,0.5143344359722022,0.49685425387146226,0.5326061975471879,0.6038302514289855,0.6201731533075898,0.6503919565375357,0.6552580271971055,0.6317544887143357,0.5722541530123781,0.5465119091531697,0.5434406629217732,0.4894145025225661,0.4961232690460619,0.5130849831832227,0.507866939267348,0.49822405645574364,0.5352458068934629,0.531963996039291,0.48031609442897105,0.5052578747403037,0.5710442815730612,0.5298588824203646
0.5958806049048226,0.7112509253976709,0.8557946734852941,0.9751738608154983,0.9999999999999998,0.990823674585326,0.9002967640154667,0.7515507749098842,0.6121181421287938,0.48439366380619586,0.48668657329669013,0.5268218299900229,0.4161461520046177,0.39479222888264015,0.5012826863527763,0.4735618538763703,0.4043288469257359,0.3733031248083434,0.3080116632223869,0.2918852664402405,0.3083127929588115,0.2808509089536043,0.26881727055974725,0.29061748922561736,0.28466734669733984,0.20703817224199095,0.152782851072724,0.21055275635288923,0.20905717295884946,0.10188942549324098,0.0913233306786741,0.12613575493067852,0.0749763421045076,0.02130534386364291,0.0,0.002931624073890249,0.03903656090219837,0.0540302876918507,0.05800012221337586,0.08524543830754805,0.1103264605252472,0.15151104997711567,0.22768501613741607,0.3024931483986528,0.32893571475889605,0.32678910942532113,0.3985315381447048,0.4920940055456274,0.4785095348217075,0.4809741480727877,0.5607096999996759,0.5673921486507877,0.534651893519753,0.5463872396723832,0.5487085498087092,0.551703624296868,0.5715328584736711,0.5691513353486995,0.5496304519984623,0.5316508491204379,0.5299627718395805,0.5419792534416079,0.5471684132715682,0.5523146129773847,0.5499245416188491,0.539698961867751,0.5476666059323534,0.5482160299040714,0.5462832130767865,0.5826731617750966,0.6068305502606975,0.6085507806072172,0.6493642837776712,0.6960598698081237,0.7053780699826856,0.7008526673069276,0.6740475673673305,0.6254604176681218,0.6185565572559052,0.6292731353886256,0.6012376394408256,0.613123189630586,0.6426755747631389,0.5993722097731153,0.5785797018328765,0.5811615565873065,0.5471216348172725,0.5597244188915961,0.5637300661773141,0.5175762652240274,0.5346462900252994,0.5597015960463637,0.5293755667310167,0.5301780818688859,0.5397804895841024,0.4991136268249199
0.5591333490537413,0.8633976536917842,1.0,0.775912019183306,0.46317992675256864,0.39110104073580043,0.5531695801502796,0.5946746815861942,0.5616842927563723,0.5588151814347315,0.485382091412217,0.37909457613574526,0.2955684980515333,0.30398823230411587,0.27862777298379987,0.30362007364559634,0.3174030337543324,0.3108293578156468,0.27317080415219275,0.23439722669535729,0.20040908966644114,0.1690775913761155,0.1379685500120676,0.1314028622589728,0.11814355846685276,0.06387855526251318,0.052934509925169515,0.014004316748658374,0.011648637434884423,0.025781664579322072,0.0,0.010730262720296757,0.021561737565102157,0.047839917471768745,0.1030748790902612,0.15048579153480557,0.20448957004968638,0.2878598740710712,0.3647110152102235,0.4006751705470514,0.45797847320852497,0.4985245906534816,0.519775444886301,0.5451410110284243,0.5255757279460753,0.5250337613713884,0.5054027863943176,0.491071992109507,0.5086545254066784,0.49832042087748385,0.4938502400419552,0.49548310232119186,0.49420741538966795,0.5029473383042102,0.5142466534852717,0.5187079058258687,0.5172491749718734,0.49483327391076004,0.4804375129603601,0.483958809687113,0.466688233345744,0.4506394814526382,0.45356144740234833,0.44272459555233323,0.427332686172984,0.4247005470254034,0.41996885531931216,0.41811680497746084,0.41733525327081006,0.4102696906730663,0.4157967952053538,0.4097377706548901,0.3929723228033263,0.408564344586081,0.44362896516806244,0.4611165503296042,0.4962992055079304,0.49697115340690073,0.4625529981630017,0.4564609792420581,0.42541524433769357,0.40271379852587225,0.39022398915057216,0.36190738070309614,0.3666891743660937,0.37117926167479365,0.3590655667926965,0.35321474877156317,0.3607270578474396,0.33517470254318305,0.32700288111493026,0.34731020513639266,0.3612835841079687,0.36892243091401516,0.35675768683333353,0.3758904942760046
0.5265718300680382,0.6388547162540976,0.6701461167361287,0.6793452483338362,0.663309412398444,0.40834899727874646,0.23340454586306644,0.23322429143886,0.2127798610455294,0.2553022602366416,0.22251713015922472,0.16901172468577083,0.15709396737608405,0.11271525806196914,0.12932370857385111,0.11270171168369214,0.06859307437438339,0.10061642743423121,0.06563096015181064,0.03562677116349655,0.07080585998805639,0.034272214817774094,0.0733449197985146,0.058347490147403314,0.0,0.05890820835560162,0.06604749600595727,0.1544011510795587,0.21476751807453529,0.2063138202473418,0.26828431880213677,0.37016789483088947,0.41558708149737467,0.46213519807005055,0.5067914696194865,0.5108127965485539,0.5731036251900873,0.5914644331588288,0.5785896680204353,0.6107306097548754,0.5511322348150803,0.5395823054721746,0.5662732275572364,0.5731991098420203,0.5851620733512143,0.45599053440197485,0.6066042668198962,0.5800542413282604,0.464071189416013,0.5028393718130872,0.5200384444178451,0.5591127220006954,0.5172437084304429,0.543091670969594,0.49617471055361867,0.5338652979107288,0.49759688675301095,0.4832693672672078,0.5042589507745391,0.48603886625002757,0.5651345373327186,0.4842823878423027,0.4349347488273318,0.4465961353262412,0.45106575774610425,0.5474183475243698,0.5834382366225135,0.6320973957301652,0.5153849864409921,0.4499558652884588,0.5030294224076897,0.4345598176694151,0.4177073508474492,0.5099990992167708,0.3852568817027581,0.3499786639449514,0.38724685689394134,0.40536950346025424,0.42418462352842534,0.351897381112299,0.37198743824990405,0.37536584184365024,0.395435460246452,0.36711492209549146,0.33457558239445045,0.3582806993728251,0.40147022041607466,0.3561647510118635,0.5106921217441738,0.6909947466126518,0.9038212438663425,1.0,0.8092270676926985,0.3972828100004131,0.09608869818123267,0.3581087703693733
0.5494723305394947,0.6145668828032012,0.6518080916737633,0.7445993754948979,0.8918240877693614,1.0,0.9928727234697384,0.8838748947952928,0.7517138282561169,0.6348410275947589,0.5007365051618783,0.366740021115643,0.3237502502502503,0.36595764421137555,0.3766081504389962,0.3326686636885642,0.31240408069761305,0.3249878311146968,0.33273525266560094,0.3413625291958625,0.3413768594465112,0.30279283761373316,0.2626590097560247,0.2561336361236859,0.2416370848460401,0.20736783549718873,0.19663076260339943,0.20085835835835836,0.1878012216196296,0.18142044034083837,0.18937200384464067,0.1705620047908605,0.1333563165155205,0.12144418049890687,0.1225297436740223,0.10620062848918571,0.07696773888316177,0.040723559380275776,0.005548932016593733,0.0007116071295175663,0.022569335504658894,0.027173442098815226,0.009718375091509412,0.005433269089985537,0.012310071265295153,0.0036677722498618115,0.0,0.044269169667179586,0.11800023904501517,0.16057109348154125,0.16920026992166295,0.19144852564006795,0.22853410126544454,0.25145890915791413,0.28005917360146215,0.3408469090981529,0.39527598369513794,0.4053441819929382,0.4060706893460625,0.4366644181494928,0.4715163994840612,0.47004015956254763,0.44977930666985394,0.45835299727588286,0.49872647523145036,0.5357017141519629,0.5463143740755682,0.5324319269518275,0.5211022813858635,0.5470743977808654,0.5897089402835671,0.5871452995283841,0.5550657025184389,0.5673752757732857,0.6079672234423479,0.6016125379110454,0.5627172894287322,0.5605938301485565,0.5987231609719172,0.6359506396944208,0.6651330434912525,0.6866975433144588,0.6753354598379474,0.6332483627906513,0.6099756622293936,0.619576023784979,0.6148322377103472,0.5859724699824203,0.5958435549977839,0.6612275708544366,0.7008383258880772,0.6762137261639749,0.671528543468842,0.726910467681612,0.715677443612767,0.552599345614271
0.7576050578143726,0.9659973497051192,1.0,0.9814218947981418,0.9739405903451432,0.8946642665278061,0.7373062572635556,0.5825105854239954,0.42698859963651015,0.31160624429446515,0.3467652732078695,0.40897165000772817,0.33215847274793897,0.2908661183119537,0.39442429627723524,0.4275831059690636,0.3577898042377976,0.32887273451168475,0.2783100307359029,0.20628638323110632,0.24422112009368419,0.2821571893970626,0.2081125775024711,0.17328787668685836,0.19632594176214502,0.1565793495613091,0.14184393349989,0.20922429597802045,0.2140293790573407,0.14452725888688928,0.11301192492439449,0.10893224833068543,0.09637214706892477,0.08419616277620451,0.0564394806790941,0.04250843809045246,0.0740809968789094,0.06944756256370588,0.007040734071091015,0.0,0.05408398248134888,0.07054168347022566,0.06926749604639099,0.12260994015797977,0.20035371394263252,0.24999942027137098,0.28065506810455576,0.30949934214826297,0.33472354050746267,0.36736945516448916,0.41791050467340757,0.463265871777679,0.4850148938830121,0.5049450945560771,0.5270028315068297,0.5323823812428241,0.5461643003297254,0.571269658995205,0.5603913808752574,0.5522890842054898,0.5913487540836972,0.5885893346389072,0.5359261267703814,0.5502392829916316,0.5846080763304375,0.5373776153124659,0.5051438666721398,0.5407682797553433,0.5375273465942205,0.5039477556039889,0.5234781772845679,0.5495850381952337,0.5384755465321522,0.5406837796324315,0.5598542225609999,0.5509692945796589,0.5287876593353749,0.5285009741778584,0.5402072193232155,0.5609908927437518,0.615363096195961,0.6684401531643038,0.6468044539802531,0.5928918631253226,0.5996836949172479,0.6244838825623146,0.6013254770441956,0.5789562785498819,0.5884524532292241,0.6078676234557829,0.6304935155015228,0.608640644830284,0.5463119534713543,0.5669935549137191,0.6265954856531657,0.5309441960702066
0.804164130267927,0.8137684072144294,0.8880953826908424,0.7405768196418997,0.8225502090913901,0.6938016807676313,0.6143507674072399,0.8918728634439599,0.6460634383170556,0.5228196799179307,0.5978501186584806,0.6388419659286889,0.6275448926605615,0.43266764410315034,0.6573672310155493,0.6011589602778641,0.4885523112569272,0.454751341832617,0.4002284277771536,0.5157357017450102,0.31179578021650445,0.19097419536913934,0.4857101974272371,0.3441624749866213,0.019868486492182202,0.07949123411469061,0.1568587120665027,0.09099225796145849,0.0,0.05373771149849704,0.11346614366939511,0.11127743309989468,0.11804296518874047,0.232218835489784,0.3772790789418205,0.3514709539460741,0.38507668466137546,0.6235009684621193,0.7602414050991478,0.7415989297725003,0.7843764365230259,0.8690477363258915,0.8832380186303633,0.908162302157313,0.964136745114606,0.9548233366606713,0.8661208219238307,0.9040842840661939,1.0,0.8806482074291727,0.8039142474583493,0.9202763772192094,0.9262964381960387,0.8477950143229552,0.8377621660633592,0.8666120921011244,0.9204715742072024,0.8982677043065763,0.8420904085548735,0.9312189157245128,0.9368421081452019,0.846720956312438,0.8232388952932098,0.8080598848859806,0.854789013302407,0.88722040433036,0.8978431434261356,0.8493619148715527,0.7548038112252323,0.8151998813454309,0.8647572226705639,0.8765043457522804,0.691212856529223,0.8051828583886765,0.8844293830997605,0.7552627267546993,0.7985290369274538,0.7299176268084855,0.8621469160203148,0.845261229230985,0.6569445230697271,0.8121608312828976,0.7737091680654724,0.7735368341941901,0.7671732423724792,0.8383656370902127,0.9437159505988753,0.8583015134533197,0.8752283032659969,0.8234784286832819,0.7726233629814172,0.8852424865861068,0.747145793594609,0.6835618440918492,0.7933168017284601,0.7130516610218567
0.3754635087222807,0.5058404514096294,0.7664871644079436,1.0,0.7641017146203986,0.45414100576722344,0.19046778256350308,0.08382942257154608,0.23590126227670974,0.25990868919912546,0.21588310561554264,0.20141758356488673,0.23710981573118184,0.28059308841649644,0.22101749823829822,0.1305969212874462,0.21954110379894912,0.1943135700936576,0.14030826446546174,0.15380594255063396,0.17947391235632829,0.13118373169688197,0.09799635535055706,0.130610609449851,0.07234494302803185,0.08577360532416839,0.1315215399650106,0.07952208430131175,0.0,0.012934719947894413,0.03704565757051176,0.024379025291179912,0.07200331394492299,0.09515409560113092,0.10969365057893965,0.21054556063124238,0.24697949088530674,0.27104299661399744,0.33302766257062316,0.3828322807451754,0.47167646733530555,0.49510009413115585,0.48339939911934665,0.5013459822340636,0.5656175357898614,0.5991710426590469,0.5578223498720648,0.5463840465468744,0.5690222528901359,0.5288117864500509,0.5016678747675586,0.5343997246490735,0.5316432570340693,0.5062306567763943,0.5019518021254081,0.5045543873444667,0.5096362029564242,0.5176161883405086,0.5031534354533311,0.47874332245346995,0.5365812022691412,0.4573915047591682,0.4679353849737251,0.5177216669459015,0.46830293624623365,0.4949459372300564,0.5124156288470715,0.4801082381240956,0.4028237807301796,0.48899402930887814,0.4594756944141113,0.44370715389550913,0.4229746383760913,0.47415498735338063,0.5462211110451434,0.5164840845714026,0.4992533886409285,0.4765476577393325,0.4779695462127479,0.4488234106304606,0.3729839064490887,0.37988850732054236,0.39841313392907995,0.3615062146390297,0.3443946514970667,0.31488480641609057,0.35096964160328886,0.33767044984847405,0.29749682088718615,0.32889829452359065,0.35071060796789416,0.2974228491672636,0.27891054246131963,0.3495314632892294,0.3288028075348474,0.3144091539011105
0.5988809153548428,0.6671361292138347,0.7669040023480793,0.9073081965232401,1.0,0.9807570694319346,0.8693993181339263,0.7275514388356761,0.567126119197596,0.45439926821911564,0.4604714604021208,0.5184818914883399,0.5049592177058683,0.4457961327086831,0.42886613543059593,0.44383225409576726,0.46804740321646715,0.46847193882678884,0.3925653282742892,0.32493053522177073,0.3317734851281054,0.3224648139136629,0.30522102968059095,0.3246255029728802,0.2944995826499581,0.23362774594697827,0.23963158865694179,0.2679698715825839,0.2650702133651194,0.24816412920420347,0.20609040770714981,0.1433303383545108,0.11852530168227526,0.1354827020561683,0.12665998195978645,0.07783271893927812,0.04202383374044799,0.031222376920560346,0.021770162073255106,0.021456902673180234,0.024170645129584667,0.0029944016684587127,0.0,0.06256519868516003,0.13283256378402641,0.16514733107130414,0.191587652693667,0.216404674331291,0.24261742770340172,0.3072125494653746,0.39453654125315724,0.4597948834045483,0.49927447645788925,0.5329740377783965,0.5788915919840548,0.6255931306615266,0.6530346946892293,0.679483787250145,0.709878116689573,0.7164584686996397,0.7068658214407352,0.7063381042062711,0.7155458798678472,0.7287883116124548,0.726332505631243,0.708718767430448,0.7116117405803111,0.7197564985093057,0.713715250803527,0.7139947331623209,0.698894060941033,0.6876488898607924,0.7178788683606302,0.7039897760399548,0.6573086821442982,0.7012866279683047,0.7564980358589624,0.7325713754062613,0.7189625608348592,0.7302474960282556,0.7265004277117615,0.7295546757502784,0.7380248376639145,0.7700064580837199,0.8056104896529304,0.7773846246204683,0.7809052555480043,0.8608307171795173,0.884342567970107,0.847509062919905,0.7535570903826281,0.5915050321839608,0.48551577487927994,0.3308796339645479,0.09694362550938473,0.2062589276832329
0.4461638272764758,0.7634475264640681,1.0,0.7750790990142231,0.6996741542380503,0.4339380355611443,0.14196500121102154,0.3456718775887698,0.5058836123784374,0.3718065380213599,0.36601527470968853,0.42795967164855353,0.2437981888243268,0.22102101482713893,0.21698625236976715,0.19567604631458835,0.16727709507168517,0.12028321353325896,0.15976724006148182,0.1203952752898399,0.11134496708886618,0.13568555652623146,0.09750253727250191,0.08410298007393552,0.046782250855678775,0.023730380517021643,0.026045718420500463,0.013684738975477562,0.008072005684771733,0.0386133100608394,0.0,0.014870970595044886,0.0356781177753579,0.07423184664498989,0.1432503390593326,0.15863728668536559,0.2134532674713212,0.27683696660552537,0.3445401451410631,0.39648589137679713,0.41159710693097606,0.46627696035555094,0.49103087206184914,0.518928684624191,0.5093941457742467,0.48650710605363057,0.5405908966417599,0.488339740209634,0.4589603722792279,0.49752255249524713,0.43584777290383386,0.42830553619245937,0.4521303479146494,0.440966961090528,0.43527282330670986,0.4297590912480249,0.45996387578852094,0.4428935495174333,0.42051697005084154,0.44454566049434235,0.46416670774589297,0.39324351427234694,0.4348650284923734,0.4313344656369751,0.3614237697987782,0.42630555683588284,0.38806399390093615,0.375823967121433,0.3912922409379375,0.3574423261009574,0.36639886333039284,0.3550778390535489,0.38351727988015427,0.4324021737524921,0.43378839743501907,0.40464740765760676,0.44947324923748355,0.3877426701164912,0.3120686491708907,0.3371944738623116,0.30667690533014974,0.3088668077419245,0.2791743947517299,0.3030297622998767,0.27845365809472233,0.3293332869211633,0.2599156520394368,0.24522152973818623,0.3101087730456684,0.2532262859117711,0.26346139137030156,0.265926824758512,0.25318469119307063,0.2617608199567805,0.2656663563627925,0.3188059059054962
0.5905754694847746,0.6920816452334143,0.7839991955175409,0.9333934509229793,1.0,0.8714814931115586,0.7133753235144176,0.5644939216534424,0.43445162134938575,0.47035806610640285,0.5579587468588483,0.534775534568355,0.5134966637372954,0.5397271329552301,0.5435043583408519,0.531070012966627,0.45550405346147227,0.3850231927392682,0.40156529490994863,0.38094872202815677,0.3567109581948936,0.38671137278739914,0.38150825293554524,0.35108986231203854,0.334144798755973,0.3308456341347267,0.31402739645783506,0.2554907104624944,0.21337320126748233,0.207151457200123,0.16098303121756846,0.12014432164267624,0.11731380748138509,0.03865595345685158,0.0,0.04952421134739088,0.0393905727538133,0.055154522408644435,0.09863236171504347,0.12345329687842821,0.1870831482066822,0.22076425310596876,0.2886513519024777,0.3982833436223754,0.4242386429061643,0.4586167761749438,0.5347718372319881,0.5537253369509564,0.5578806823689739,0.6120814428656023,0.6508760585058622,0.6251113651593798,0.6239252041324955,0.6578281391557517,0.6510420644831958,0.6485657382483392,0.659634491143421,0.6300334552616165,0.6017788553115003,0.6013812367582101,0.607204449002034,0.605042301812763,0.5908138672160986,0.5816532174882884,0.5748997087452445,0.5731801516282069,0.5905995625194133,0.5977135776510942,0.5893194996091746,0.6019110079299014,0.6203562848271031,0.6179161454170037,0.6272095230832373,0.6675163191234182,0.7166148982579732,0.7428141070802925,0.7128287896093503,0.6629928272277965,0.6812565685302804,0.6733519087941547,0.5758714665066285,0.5538560271300002,0.5657227046405776,0.5276768136958673,0.5510535829532919,0.5583338112579789,0.5002427454207091,0.49495554055610874,0.48202587741181546,0.4319475831962539,0.48000930288452787,0.5388697894487635,0.507527585740134,0.5054333245030427,0.5352500508786072,0.5203536295039235
0.5804444876010106,0.7201745484582425,0.9170574126904903,0.9999999999999999,0.9511065192524678,0.9172449366019253,0.8143389503762065,0.6371962896573778,0.48317818823987885,0.4020123501145483,0.4610095606898922,0.4780809113113144,0.38593604326359443,0.4226623553257037,0.47399451799402237,0.41429366187564043,0.37983137607516493,0.32587409978100196,0.25344762141506494,0.24557235511207864,0.23905421608363225,0.21330756886331426,0.1978652777157402,0.1892935550631391,0.1833487467009502,0.16562752991882895,0.13809823254440973,0.12042233015679427,0.10025770943503948,0.06726380681049454,0.05812487740837913,0.053365312348884586,0.02009651966029735,0.01486806714039629,0.028053908593098087,0.005571832054496351,0.0,0.03106268081252589,0.04954492048294784,0.08367318481864211,0.1528189890617525,0.19579114725041963,0.22586315182328942,0.29790972984205344,0.3728543912561344,0.41781822324848533,0.44975358679616223,0.4526044966121016,0.4558296178766581,0.520292143196076,0.5612361352518153,0.5427096920369014,0.5801733469794396,0.6142923801256244,0.5879152310095465,0.612331388051112,0.6317808906608975,0.5860819996336007,0.5604131196824367,0.5772465938140673,0.6037591216257768,0.5661874552924947,0.5177597003553296,0.5701977092926228,0.594241337991653,0.562834899593012,0.5937968478012484,0.6028430458264471,0.5796642824821672,0.6332956990813478,0.7045784498981397,0.7239520677281888,0.7391040049509212,0.7674028443198082,0.7875389299199942,0.804499382753212,0.8049496006830821,0.7947177139794259,0.7775548482194357,0.7236390850894279,0.7000055723758272,0.7185195942678586,0.7004365122675775,0.7071719480593464,0.7363805968941514,0.7111742448517993,0.7003928576746077,0.7097158334320539,0.6861282384417544,0.6925804256057402,0.7231921349747501,0.682944291130743,0.6366180883410594,0.6857421649793528,0.7250600461041596,0.6186526554558854
0.4856008060474113,0.5436571773201175,0.7893470120803294,1.0,0.7769378710002377,0.5975560203569632,0.38167555495083394,0.3319842275955355,0.5533153012327016,0.5707389313378072,0.5020147919511039,0.5323729570192843,0.5167464809765028,0.3308114929993547,0.25003294132158005,0.2383898350764761,0.22941954967829742,0.20491866957006355,0.19720863508489148,0.17308457860065746,0.18143035738815833,0.18238587228619543,0.123028316232837,0.12286717619119186,0.13164366211379155,0.10546295164416813,0.06551385161516804,0.03468685926422371,0.03456064578947171,0.01806320567306452,0.0,0.0035160671145608724,0.02172288079273954,0.0403336016537042,0.061957460816585874,0.1042753280519047,0.15115391395496477,0.20463885482937477,0.23085039246323186,0.29003651270055103,0.3657712855080461,0.3614837847225421,0.402802611200895,0.4303630998208157,0.45455261955439474,0.4510332454164725,0.4680814802429074,0.4962116294192248,0.46301205922225686,0.43584448072926674,0.42937024168496757,0.45549002488999163,0.4484727842977856,0.40560147707751537,0.4087670100287374,0.43100847471144677,0.44832311570827843,0.3970903436842935,0.40443615011053435,0.42622325831592617,0.40285640361415714,0.3992020121690209,0.39234300164416125,0.39118427841094017,0.3881907536451854,0.39031991635224733,0.36060895500674395,0.33951792743551956,0.364458352544091,0.33802498548966153,0.3373321915966955,0.31488225638960227,0.35665667535384804,0.39530034681805915,0.3892770695675335,0.4193778952783269,0.3925962226917905,0.3685802615257327,0.3377976766201424,0.29787789479705534,0.3018421701443581,0.25639037059425074,0.2585818012510586,0.2693369064082137,0.22707855012395492,0.2561757973742097,0.2652587673589506,0.22630935780356445,0.25745783613967377,0.2424398884907474,0.23320109823426954,0.2559210946976109,0.22855560701341965,0.24509378677000895,0.249887800122683,0.26436862117476745
0.678238324166027,0.7963170016228385,0.747903576384483,0.7184479001652362,0.7783206010666849,0.825727104898769,0.7126907250625513,0.49363753335017824,0.3251178936319565,0.2273723055183327,0.17269462989721526,0.15626934973959294,0.1438368176044038,0.11969020321885893,0.10875202699744141,0.10199286735060814,0.07963309935335788,0.0696842306080242,0.07804844103693459,0.07181092661552924,0.06830302558944334,0.07737968228191194,0.06640513701590994,0.06215697956325139,0.060749651349617795,0.03816018281771033,0.03543892983714181,0.022905402899426552,0.011652681578223023,0.04496920725282105,0.03210788755515054,0.0,0.0343128291060521,0.06091517267667612,0.06430587904613377,0.10462726628950525,0.15139019184422936,0.18778427549873783,0.24187340521057268,0.28417364060462424,0.3326712703526173,0.3977792855467408,0.4111515662567211,0.4334833246318038,0.47240877069528264,0.44237732982989786,0.43390286115968385,0.4726644009198442,0.47996214741594345,0.5014876923903233,0.5216935446558406,0.4693537039676371,0.44974863557162975,0.492918751033423,0.47337675787333383,0.4630023390555039,0.49884559293884834,0.47983998860800464,0.4798217817581953,0.508214469694799,0.49884559293884834,0.5152505525750388,0.5266289182776901,0.4926733319266998,0.5290591072639973,0.5921035932293541,0.5587974597735668,0.5683966299837965,0.6272530244792697,0.5833865336045879,0.5474042487528532,0.5418109675493107,0.5139523513418405,0.5562605675828516,0.6016516507911819,0.5901028293801844,0.563049308709059,0.5300222816216873,0.5173245680462716,0.47153695557605557,0.45730201229229056,0.5077162435540149,0.4700881974139526,0.4603080850048271,0.49884559293884834,0.44051673317165735,0.46891677182307034,0.5534962522642274,0.5441658631861541,0.6795346598111267,0.9418813984617086,1.0,0.9029513380446876,0.845002500061711,0.7231764961700247,0.507315434851344
0.39232082571837495,0.33786919676261856,0.34227980740037667,0.3365168886675587,0.3401296167268011,0.3870683621691119,0.4020440296520845,0.3470623933728003,0.2789994833062319,0.25790602264029294,0.2973407373972604,0.31203314654966924,0.25356863012371633,0.24111605939690067,0.2876007800010667,0.23683547681647416,0.14646163419560987,0.17226707052261947,0.21585654746952698,0.14075968802959749,0.06664912113913601,0.09364923889804855,0.06023279377905255,0.025868444100663468,0.09905795657897992,0.059830899402513515,0.0,0.09426897975681192,0.14548816623723948,0.13124564288270474,0.17220588564234912,0.2560896058898071,0.3231378120050912,0.36641380919371774,0.44608119634648413,0.5253127897395208,0.504145506180713,0.5012509294879748,0.5893095366683261,0.5886353534902307,0.5396911722656337,0.5803124490729161,0.6051870366888604,0.5993637973416939,0.6031118998973325,0.5741352574451952,0.5718851400454998,0.6083413113513265,0.5764859964150764,0.543936180545537,0.580993604282058,0.5962827064871221,0.578780388678185,0.5668058685243079,0.5764096472064363,0.5936376302840666,0.5890908066189559,0.6047980441083153,0.6221906794946604,0.6229728551659522,0.650670193186166,0.6807221046861077,0.695304529030081,0.707273196623907,0.7258521903254244,0.7468384326917099,0.7394200501158428,0.7213008973546535,0.6907851903080319,0.6451525372520595,0.6195472567631328,0.5933884150235839,0.5976638870687954,0.622126342081127,0.6175292987755925,0.5995267468535305,0.5219993764846796,0.4957028741259735,0.5559532491755643,0.5460054561986921,0.5548347325183828,0.5691682010961079,0.5042113984150736,0.5101137963712712,0.5498496767055693,0.5352428191565164,0.5906826257479573,0.6790556241332812,0.7617963237473232,0.9409540599342038,1.0,0.8243984929003771,0.6689765570978353,0.5292042703657991,0.3660368498540838,0.3742134660050865
0.6259756339151514,0.906739719325791,0.9999999999999999,0.8918860098754375,0.5545559664384291,0.533317240434432,0.6746410502944515,0.5823961275632131,0.5846790431211323,0.5638552231642819,0.3950922467652186,0.3146020662095627,0.3141577227416153,0.27556842946523497,0.2456179422599832,0.24926367940012145,0.22864561185099672,0.21138439047643331,0.1898574349598271,0.18238323752153313,0.1599344450361695,0.13914494140669043,0.12282092703057212,0.11398841104920515,0.09603469816445515,0.05516945208994817,0.06880144501125907,0.026665674917128623,0.0,0.040974376601766394,0.028185284805065547,0.05941402710696908,0.06796602438539406,0.1325649399415445,0.21106328361909327,0.2584757625207703,0.3274201661275057,0.39640152634602177,0.4637050622856542,0.4787423111159327,0.5203801453118203,0.5383227719500311,0.542522045729947,0.5377194678837499,0.5538102675778085,0.5289859984962355,0.5022103399801925,0.5151910559914226,0.5052032562058291,0.5059451097952967,0.49322044793963477,0.4924764736471978,0.5115284619342845,0.49218492765731264,0.4974360756374969,0.49557857567471514,0.48658406820328143,0.48503126222029747,0.47255445913635685,0.47954062404605213,0.45629576830765467,0.4599480149556911,0.47455819916463093,0.45707574480341173,0.44696684569256667,0.4373112371683651,0.45210311458487945,0.4496276369863569,0.4271044503882268,0.42411808236272325,0.4361993402568604,0.4221868792199409,0.4181116601150272,0.45350422858222655,0.4973517136680282,0.5066709337445962,0.49410212789604,0.467265256421916,0.4335269449775784,0.40864761389777904,0.40585223903487855,0.40238402444789123,0.3722077306495711,0.3690141233290297,0.3688807991000407,0.3763258710506467,0.32845672557270766,0.3509249102377,0.3716304056552865,0.35304533499147367,0.35262393049135304,0.3561943854398098,0.3757086040622867,0.33651049583988457,0.3633879923181542,0.4232172663324345
0.6168137937529152,0.6951089841027618,0.888429087297324,1.0,0.9070375371910674,0.8390048805918625,0.8518346639347909,0.7377982601981634,0.5348613801089022,0.4158539214740059,0.39694852056490104,0.4353444288906273,0.449914916775516,0.39690335148195854,0.37390466339628947,0.4090417224137039,0.4066954691218863,0.362868537235032,0.33410753275038174,0.30249559248293645,0.2602709364539708,0.2591733430870596,0.28283168240590995,0.2665256044418303,0.2523611440267576,0.26923652725376507,0.24058824126216413,0.20126964066866793,0.22675690511006635,0.23409867479222823,0.19445744160836587,0.17592435589897087,0.15198632882769808,0.12633545100534577,0.14037639428293597,0.12159913590032889,0.05821346040232561,0.04824855664709765,0.08218429183551207,0.09568056824126742,0.10943628786777115,0.13518838834849423,0.13995984912594978,0.1468094311109701,0.18568998811394694,0.2114879522664016,0.22901208142245544,0.30449771995376695,0.3715746275820428,0.33505149712500076,0.31823839796087466,0.45332101630566696,0.5758462471783957,0.5327631860657684,0.5112247083182341,0.6109042583495686,0.6338154984871233,0.5895649975117072,0.6235299626613001,0.6371143790025029,0.6202198932830663,0.6722342918225048,0.6626357537367966,0.5759405993911032,0.5982217278299355,0.6704379941628528,0.6644991871750294,0.6424011414148956,0.6416031915704496,0.6542808885845763,0.6731161698449091,0.6632721167346212,0.6713113862353314,0.7122293880776827,0.7041568719675152,0.7053723815368416,0.7849878290874535,0.8147647724337221,0.7700882752111669,0.7913054653211589,0.8481915587430909,0.8416163523370572,0.8690544045123818,0.9518850541402044,0.858646862995093,0.6646279514495445,0.726648505034208,0.8739743043771322,0.7957773424096404,0.7074442306336549,0.6679052867051805,0.5202996305151846,0.3979505572449123,0.2319245468458515,0.0,0.1622507382282159
0.7507436605371052,0.9931543925113431,1.0,0.7157490574656509,0.4833030822440981,0.6019050164733494,0.7162335345463327,0.6711612359406948,0.7023526830381123,0.5874084016646274,0.4256947380941693,0.4309638733597069,0.36321636427227166,0.33328066465970474,0.3303460032066533,0.3170050683070705,0.29307352620367166,0.2449973291089619,0.2507626004287009,0.24199237125324038,0.1565281549062546,0.16059612284083002,0.11581998156781231,0.06199385911884886,0.05895011062262967,0.0,0.010527035304215282,0.001467826747732659,0.04488322641023629,0.11047728863442347,0.17822546898409092,0.27140403287616677,0.36716582373093365,0.4525283943429187,0.5063461234398178,0.540074794849688,0.5932287125271571,0.631282499165922,0.6013288556644226,0.6038537224154042,0.644107722499718,0.591022996315404,0.5759323381926844,0.6277265162026763,0.5913160666338059,0.6033458462025755,0.6115963817817213,0.605143985451787,0.6139277428383696,0.6076393443862963,0.5966924850490198,0.6013287923004361,0.6302081548539794,0.5925244020157431,0.5777376771748644,0.5923433572453838,0.5811045324992203,0.5731123279328669,0.5562108637040056,0.5785351307663381,0.5598664588143097,0.5354182883474441,0.5277625821917535,0.5503446812754845,0.5304129670596573,0.5079356326051511,0.5414762517817904,0.5038768732399291,0.5146401778009303,0.5005496813949851,0.5356235342004048,0.5865775097093924,0.5879133096707126,0.5977879632305915,0.5611243646349513,0.543803672390527,0.5016006869685804,0.48678417432161375,0.4836851197578355,0.47547115905978377,0.4950835904640606,0.45502773134770663,0.49571766457057936,0.4834705823683015,0.5016167590457487,0.500540482528242,0.4656151762925704,0.48504585483393853,0.5108908635923266,0.5076146134223576,0.5744557434533171,0.7838562344014449,0.9224375103869911,0.6550446633929795,0.3845330726644534,0.4735088803538039
0.5445661353600239,0.6598680833043582,0.764565323282274,0.8460024213155195,0.9306270727062003,1.0,0.9863563528560808,0.8813733716643253,0.7556015458522363,0.637263397763931,0.5072069010604283,0.41117408610503847,0.4015138729701946,0.42286407621438593,0.4133278185482411,0.4079053941276603,0.4434596915280186,0.48355251685567646,0.47800914372872216,0.41944056092245313,0.3379063445154892,0.28105303070231835,0.2784197698055958,0.29952039004232633,0.2920972584620699,0.2600469701028439,0.24541293140951256,0.24574352954577436,0.2292031161063223,0.19893323905854898,0.17584548333864924,0.1611613492286521,0.14300219908086031,0.10819387437502981,0.061585526482502484,0.02613551710458517,0.004522393809596514,0.0,0.027633291769508017,0.04457042297247421,0.012179190389109196,0.000212923427045153,0.040728811130523346,0.058332572216261425,0.06753826879348707,0.13766676429053076,0.20241391099064743,0.20682365618050685,0.23338737388034902,0.30689210979034315,0.352371548589294,0.3582147023910404,0.3735973098096868,0.42256739368536445,0.4837645511464992,0.5088899791235755,0.4996501792325737,0.5176914027492191,0.5655452897094781,0.589568898350835,0.5935428284816215,0.6055295752146758,0.6159207546474533,0.6291087540548934,0.6507836574984044,0.650669484997975,0.6321398219070026,0.6338149076234392,0.6456876448643714,0.645334566400619,0.6576731146990172,0.6860792189748388,0.6860691124597771,0.6587292381134959,0.655388980549503,0.6673969702288048,0.637187077768349,0.5862520201298465,0.5995603369569421,0.6717920298520571,0.7053920283108877,0.686780999376271,0.6910048484104245,0.7021081172851688,0.6598931939931735,0.6250752369782666,0.6446936053866243,0.6380731761086924,0.6000600092855459,0.6181332441760219,0.6487575210427671,0.6080354673475343,0.5772539689682568,0.632820282797679,0.661577040171224,0.5660896065557397
0.47883182933750473,0.5269563947412068,0.7586659583202441,1.0,0.9392042488878287,0.8948299052299835,0.6278620890073683,0.3603291168984622,0.4594020810761458,0.4780459983000802,0.3939375634365245,0.35888220181007874,0.42048417109003333,0.3827089934352063,0.2574196959065459,0.33298702250686724,0.29069072427429454,0.22317703789209944,0.24223263449705992,0.21698280889372282,0.19903528575424614,0.20781142630004934,0.19607864952284756,0.1672832697623117,0.1537396328288613,0.1349042909067501,0.10620909794762173,0.09718469506607441,0.10748129357997954,0.05092531394887717,0.05739219058301742,0.11129190833903024,0.0,0.04906172781394913,0.10605259444280463,0.07167123770886086,0.13183957944241254,0.1667952846900521,0.27785870758654085,0.3684617195720265,0.40834065391562485,0.4791172398601329,0.5036329855136583,0.5259679872936717,0.5454291776524083,0.5638086519535636,0.5919043110929487,0.5995592524929723,0.5639983594294989,0.5263937839903724,0.5957061257856919,0.5593155167029631,0.4937355137280569,0.5440708418361105,0.5056559551751041,0.5271648465444251,0.5118796039300388,0.4931596656681785,0.5335548221340086,0.5172551458294709,0.4928408446612481,0.5039315440423319,0.5242596023281664,0.493802232370309,0.5038337423751751,0.4765266528985009,0.44035225195650307,0.5053961485663288,0.45134698596333606,0.45298417411331193,0.4603842577790586,0.42171899527801093,0.43184745857154827,0.4447852025675728,0.5164182409188385,0.5291645602166862,0.5025010607056667,0.5123724076432575,0.4514721738833567,0.4400736545084665,0.40681229598102087,0.3689216448979755,0.4377843888870232,0.3835561408416194,0.3416288829711182,0.40121194595047643,0.4113956858651679,0.38363900155898845,0.34166779861318025,0.3653803624008702,0.3641184812648356,0.3557079825438685,0.3687605720564034,0.3235047668731271,0.35457272933870476,0.3964982593822335
0.4280200940759712,0.5453725890006675,0.7197311403052767,1.0,0.8141079905735782,0.5176991630311489,0.2520374789244313,0.16393608503364035,0.32879766509461344,0.3691518344367925,0.3832716945814267,0.2853523362639318,0.3149254050351603,0.39270898478884064,0.30076581472910646,0.33291542336727553,0.2752514728971547,0.1928903135187684,0.23083059193442573,0.21511811189425475,0.18976656560233623,0.17922714115941935,0.1484700589362102,0.14290580393371077,0.12717021779521742,0.09620781281654789,0.09017212344027381,0.08700552179109144,0.06064454552895082,0.023652548385244387,0.06152560921177336,0.0,0.06397615503962079,0.053934714493835745,0.0707067599064648,0.12795685799909884,0.1374567629009285,0.238791262523043,0.2343531391133885,0.307546373414573,0.3626021604818316,0.3565864449698449,0.4288229285395348,0.4835793322064377,0.5026677581452204,0.5341496888348217,0.478895737737821,0.5250394223855246,0.5182455131397151,0.4703384133820259,0.5087205263765775,0.45597260239787324,0.48346163270689374,0.4843681780681546,0.4080418467933075,0.44845567051723323,0.4852483738146234,0.456093165587613,0.42660698707422867,0.5820517292399078,0.38976857968113016,0.3594721414337106,0.48321336792573355,0.35976184526134153,0.44344633003941214,0.4138302076268683,0.3678513959023708,0.4280091424184102,0.37737726392909987,0.3809379403350564,0.4214680891871406,0.40530881850156436,0.40076969628707987,0.4845841143025199,0.5416032796865926,0.43975139837290755,0.5005362047488846,0.47243640879389115,0.35895864563146557,0.38395664962773773,0.34703237350956295,0.36480949588340783,0.3127386985316033,0.30293281024813934,0.27496289488792647,0.34282080447771196,0.355853513700392,0.31767468589325054,0.2944697611057662,0.3401463743841296,0.3422875662053438,0.3141690459811856,0.3251420671042076,0.3253268659136455,0.3640379181235489,0.3250328137415415
0.4676026645461157,0.7812718015324285,1.0,0.9920725525007144,0.886463742494691,0.5307104164983083,0.2019662305874198,0.4287920391030036,0.586062081933356,0.4714800069481645,0.5457779340790807,0.5704957919449611,0.42953300961329377,0.3002060997219901,0.30139146992002946,0.2282636211934014,0.23058705117064907,0.17906319747200117,0.19278386459576927,0.20034672090789352,0.16934266114701363,0.18583045145574045,0.15561628719746534,0.12994581847961834,0.09030799780391346,0.0752402698620448,0.08712325577326657,0.0774026986204478,0.028683464451474072,0.0,0.020391634043340212,0.04312835692571215,0.029611927515814596,0.10437063709003536,0.1443478264491797,0.15381111822960097,0.23652850247059734,0.3355774203814492,0.4269447064817044,0.46361566361219575,0.5089147596010054,0.5723397506658657,0.6295792611451808,0.624417749644469,0.6383704408918643,0.6491278345637027,0.660565313163106,0.6389085654039723,0.6299339799402991,0.6130741649914148,0.5963680594376318,0.5937430778702626,0.5728904676847866,0.6054625382294844,0.5872105660421372,0.5625467355706867,0.548465990650803,0.5603695003070022,0.5957990909901301,0.572028468312954,0.5573576022000855,0.5423668934956348,0.564231792518143,0.579701691303214,0.5175773858072492,0.5001832745016525,0.5060316420578896,0.5246121274629951,0.5125723517204205,0.4710915408179672,0.5222267451015024,0.548363923863446,0.5152713324896673,0.5497084603483913,0.5933099485385943,0.5860470900603757,0.540807836596499,0.5007810041014165,0.4872662325868916,0.4752002387702582,0.44096891633626784,0.39647849901317733,0.4176837414616305,0.42874447458463055,0.4079931718037818,0.444345549967217,0.4122427700349158,0.38883946074245385,0.40949002221913045,0.4025123154966563,0.43327677855099944,0.4152634470727316,0.45746529041911427,0.438798500312834,0.4145563838552649,0.532787219959394
0.4719957320480809,0.6515571359749679,0.8413839100437022,1.0,0.7837436464271352,0.41332021120834517,0.10439393836765687,0.27748731668683235,0.47111973696544923,0.4480378658016032,0.5271098611698911,0.4417113788525232,0.4364647865952961,0.32167834294956305,0.27341743635388893,0.25371916536862826,0.18006692183396333,0.19989251932674437,0.1633115645876227,0.2136537959961129,0.16929165611971275,0.12240320195905335,0.12091341596793365,0.09099372501187242,0.11855813167431944,0.049609024730589646,0.10151607288883852,0.06541471710038171,0.0,0.057756227845647656,0.010090957599865391,0.012213560828098768,0.019368137737824975,0.07395827244531877,0.08818547570086338,0.11205085969068346,0.20240967688983227,0.2843166857452597,0.37155760593636505,0.385771373062465,0.49793818234819975,0.5314690081782482,0.5383848538967786,0.6162850341796569,0.6292032088830397,0.5968252853280309,0.6345854585079695,0.6106440110151592,0.5599000065142337,0.6083178484397909,0.5368064672207361,0.5127613961666704,0.5862050169800732,0.5524355895745169,0.5726481756090203,0.5440265732229543,0.5320409269478458,0.5634713159228524,0.5776536428823552,0.5309360159265067,0.5404642072967946,0.5479466679946003,0.5455171515422301,0.5871085867549993,0.5962960059385727,0.5496924198822437,0.5217151977069898,0.5559900071322077,0.5378585431246864,0.5374185961216142,0.5363545203136633,0.5308986636120848,0.5700352425055164,0.6432748252299696,0.6357290556309696,0.6523481261627259,0.5930995890011974,0.5627837193330327,0.5891088285927859,0.522200234244816,0.557081091086463,0.5065234425859785,0.4778498224975873,0.5446390345253544,0.49145553107352147,0.5073075192401945,0.5022720961089454,0.5035609882368328,0.45787444780581127,0.5283258298393543,0.5530330133665551,0.463060003533909,0.5274519462380887,0.46604797963010025,0.4748968719051641,0.528902924874162
0.5627326337810385,0.6776811970227746,0.8643700189295329,1.0,0.9865018781159238,0.9353053827068087,0.9067841478178061,0.7985174416293641,0.616219239568542,0.46460960138974294,0.3826674032754005,0.3890470911136954,0.4373953346941066,0.4154795990599286,0.35028204982699235,0.3332213769864329,0.3364003310107844,0.3454089060598737,0.3788810263654821,0.36703767430904194,0.2940626498285632,0.2478866740466006,0.24740625338033767,0.2598627245382788,0.26979839334720174,0.23617397685421673,0.1716942377284923,0.15312884713913283,0.15724344402191803,0.11901885091759085,0.0759587768720359,0.06453311309874932,0.0480462922349284,0.01840780164811623,0.0036870942057904976,0.0032318266539789753,0.0029526022551333297,0.0,0.004935176656821139,0.0314239654128442,0.06803034139790337,0.08930253273670924,0.09410607094147538,0.10056165500808506,0.13582022895302526,0.2187578897425069,0.3113482754515271,0.3424146469431171,0.3173419503599848,0.32956011628970455,0.4056741425004626,0.45369608806760453,0.44781516457301285,0.4668627914079386,0.4998339097071469,0.49502775974201535,0.5108345440975326,0.5466830798537137,0.5084282509678255,0.46012689335616624,0.5137077335585208,0.5686451937151495,0.5220663956754404,0.48369980302217913,0.5362009180934522,0.5738327347014645,0.5353524994367646,0.5159990805839562,0.5453271894734502,0.5465532080402971,0.5322726586147256,0.5549983136956727,0.5821289938895072,0.5879148476356537,0.5791636503500319,0.564244907491042,0.5813600429360035,0.6012852033485823,0.5674298131777252,0.5755593732987896,0.6616009202945884,0.6799671080533726,0.6492254614549648,0.682729128197016,0.6851380116009429,0.623004096429153,0.6231680524315428,0.6402734403284496,0.5945187625021018,0.587766953720776,0.6354041569054908,0.6345158551878668,0.6137026795396053,0.633799667045913,0.6297041188248788,0.5552457004014352
0.553988891622368,0.6006202316584714,0.6997191416184162,0.8397760134111183,0.9546545290847815,0.9999999999999999,0.9172774726087944,0.7685095021916967,0.6232275822156779,0.48869834999347256,0.5088482156043685,0.56527197271518,0.46926374869946486,0.4535450865793636,0.4924595195351806,0.4764139283451232,0.43104342962594494,0.2940817303114145,0.27394981581127376,0.3472789748288033,0.2706396289075613,0.24935981525068318,0.3011294080337315,0.2298751194534009,0.20668150283238462,0.2235990147625736,0.16276507438657445,0.10900285222802208,0.06184221199329676,0.11151551475774563,0.13658596792639305,0.03586572319501191,0.007490838278338796,0.0334718497922909,0.04190259884061548,0.08129585934752276,0.024336868687405533,0.0,0.1323500376595227,0.1814526415474888,0.20967836730145317,0.2925581970049266,0.3364293508055488,0.4009060243228483,0.4464786214961645,0.47564979111046213,0.49898940981251555,0.5100138978529741,0.5399790494242142,0.5676880142087444,0.5998055933283973,0.6135626722546929,0.6026198395842502,0.6089664669804783,0.6121914481823759,0.6013227790034462,0.6025474761335728,0.6073642949553244,0.5876972342169038,0.603882179276876,0.6512151553307474,0.6186677576662913,0.5912386178228148,0.6234128032517602,0.6306128241286157,0.6360195430162158,0.6425246780284369,0.6352783083614226,0.6389003116354617,0.6518302288320003,0.6641398442679746,0.6626278778068058,0.6692889153507957,0.6996875414040485,0.7091427646985489,0.6986523008332266,0.7173126525526128,0.7228095408224725,0.6796953335908718,0.6623985919519767,0.6591642758649416,0.6123528910408371,0.5918810718447178,0.6063972275391142,0.593110382144825,0.5886901873962361,0.5907474599467735,0.5692286546872442,0.5778405475434768,0.5751157786943865,0.5492068660522451,0.558072202849044,0.5592661658648532,0.563566395580366,0.5875039921445856,0.5509789180619377
0.45807874118329694,0.5605246759429523,0.7936639533188432,0.9999999999999998,0.7460932110670371,0.4920628499444676,0.24464841419598776,0.28695306022733197,0.45645324083606564,0.3934526060767814,0.3829023814958745,0.3621586280986372,0.4122207447050158,0.30974959911881383,0.2530691766162998,0.2511166251251824,0.20709811815437798,0.2588619697461694,0.22149235543655893,0.19381253131841794,0.16944292506968658,0.2072278222034725,0.1818233481794846,0.0971533649969013,0.14275336985517298,0.05952083245677092,0.1176326884769826,0.13557134400652743,0.0,0.0933966070408564,0.06045490041420648,0.07455597175474171,0.11971748963971238,0.12361302207529987,0.18042977904943966,0.20672304653641804,0.3018318604057026,0.35072442530397235,0.4067357699895396,0.43570261829623547,0.4181624901450316,0.5308747900540928,0.5272075870671628,0.49601927075074903,0.5112500020773459,0.5180476404789516,0.5169696710743522,0.49194440472248224,0.48604661048808584,0.4923689350368782,0.4385825156860591,0.45004044184986636,0.4757069581244474,0.418880970744802,0.45692789925708976,0.43613391105141397,0.4227779678064019,0.4975223715410771,0.3998221030765269,0.42710518594561026,0.40942950456019767,0.4424751266354013,0.47413452911427223,0.37692171412435466,0.4196976729236017,0.4054148373014059,0.4010363091039304,0.4100780123804231,0.3772428506952632,0.4020203405334689,0.391151872755777,0.3544106260279076,0.41758617922359814,0.4608096210304266,0.4563953950977771,0.47569238641580647,0.46418068844163274,0.44955433822302526,0.4195197216396722,0.3905477339401078,0.3582105603200942,0.33938007521840824,0.3816805945145298,0.3408456781658757,0.3611565017816173,0.35532860002860595,0.3077482350441143,0.3535807490488822,0.3320166454202705,0.3445989228832779,0.33154981179866366,0.31139789202885754,0.36304856996509915,0.3366227016379597,0.3377597437740076,0.3467098294903519
0.5303985771730981,0.5724218600440627,0.9165356495107168,1.0,0.7967301936466918,0.563500749398689,0.47044749041136724,0.551390561111905,0.5790858526960113,0.5651499216560326,0.5076214502168599,0.4404103759848371,0.31314565878693196,0.25617817152871647,0.26663151848994715,0.21966934443870925,0.21648623850509546,0.2061871694144431,0.20104268193748384,0.1852990545552455,0.1550379504468662,0.17202440200351546,0.1283094003326939,0.10660569347947835,0.11745345823680337,0.07475758551775336,0.08170903600225221,0.06595912557318029,0.028157915135767875,0.02998663811625174,0.0,0.00038227182257366543,0.04538747371646773,0.047132585285655726,0.05991702889682021,0.16782458843558154,0.2522686215957397,0.29961789697569946,0.3863186522035555,0.4532715534154352,0.5089399485326563,0.5339597893630118,0.5573401713388747,0.581795019967054,0.5612060962959263,0.5774563754460705,0.5610502542280169,0.5231092581895436,0.5149043717458623,0.5037006339369191,0.5187210207359113,0.517955951940581,0.4921044757781136,0.4961487473639571,0.5098906635443238,0.49853287292916637,0.4863279044120136,0.48460901284125363,0.5139129219598132,0.48942732766394953,0.46824764004540975,0.4874977439641911,0.47758480842549456,0.4606712683451605,0.46149337032591253,0.46119884359679036,0.43099249389714533,0.4415049746445301,0.45994629476631016,0.42402170850822635,0.4358423421128004,0.42002623837868436,0.4030913556322479,0.45701161300235094,0.4393374247659063,0.49409470307080255,0.5447533886300222,0.5128376713332949,0.495105172671162,0.4615596667854569,0.4646823448128225,0.4104226478068481,0.38207993119632344,0.40593166828341026,0.36411799216854784,0.3540358626185365,0.3883927564834901,0.3504887975994485,0.344409655328743,0.3632415802811808,0.3736961125813962,0.3630876175007124,0.35537331510487036,0.3696441081591065,0.37141074525919265,0.40442966617647025
0.484959442542057,0.5039255388227412,0.8496405524305761,1.0,0.7545840872090388,0.4614670921213636,0.3313340999150669,0.5092083951892135,0.5372728974092363,0.4946370323562444,0.5505492398492597,0.4385620317461716,0.29811008796241,0.23049768548461527,0.23217064461670822,0.19953761433819758,0.20613875459641712,0.17141420752273923,0.14614133983735184,0.18583854188741672,0.13246491989514453,0.1297341788850951,0.13169417315316276,0.08343809155275739,0.11886664431873584,0.0842609651186963,0.042390428627075594,0.05607761887750634,0.033959479054686215,0.02395558743224291,0.0,0.019199991780071368,0.01261248963105549,0.029508094152676745,0.061029960722318866,0.11961885952527343,0.1803863329742619,0.24251298445974795,0.32628285288034187,0.3756443097452575,0.46907592406767573,0.49454122431799824,0.5396860482674941,0.5503408609898153,0.5544774299659332,0.5845904961846138,0.5437095124940163,0.5209142945842598,0.5089650412675277,0.5024415573168466,0.4894905662558354,0.45865178859591327,0.48750786443502947,0.47744506454753977,0.466142970979432,0.4920243702534729,0.46557410788546194,0.4490871861037704,0.45507542426666037,0.4467994331918882,0.46486755181353095,0.4337525790484662,0.43517350195929705,0.45220006572273264,0.4249228583554015,0.4256687893531375,0.4120444980696929,0.41558793864924193,0.41679711399774944,0.3944142961438444,0.388136167887638,0.42583055497912087,0.45290434663585666,0.47506591263500275,0.4940494248893934,0.5176416144159934,0.47147522397929315,0.4395550798516523,0.4301553805028798,0.39310821187379696,0.3598506967398626,0.3449777410572039,0.38802444107696477,0.3255590257843381,0.33819636051652713,0.35173381614404986,0.3479863879450344,0.34084565634570235,0.3035165900360154,0.3495326423822821,0.35121041604397957,0.33060790591998157,0.31003606677150747,0.2825411744112889,0.4236645505854956,0.47276385374471874
0.6224092312422573,0.6165518662435001,0.5556861075647034,0.5450353764753332,0.46107890188221745,0.42943590310378327,0.4194350796170218,0.33082864171602544,0.34159693833829474,0.34466124019927813,0.305981849352146,0.30074496127274375,0.2444452129783448,0.24481570140555445,0.22753297957664154,0.1867125231497324,0.1913647195054145,0.16098978755492632,0.0916760845659233,0.05613338018702935,0.03697884836162407,0.04591581603265432,0.0,0.0071971654642469796,0.016884864458432236,0.002001600861488817,0.13925951167517198,0.18359022653826557,0.2584452739236205,0.36725781165668686,0.40182299331431937,0.49743726868909854,0.5559234112167201,0.6074735474527898,0.6516998028388084,0.5910187401885966,0.6368620285215829,0.6540618675970333,0.5926646395107094,0.6276872412596937,0.6168694890778569,0.603778941649816,0.604759801850463,0.6139016012726277,0.6165293483345776,0.6152297568372175,0.578620983748652,0.6397115325471554,0.6166962122269283,0.5934190912366095,0.6217156240227897,0.5732229333041827,0.6023331359061107,0.616069177241196,0.5795214038437927,0.5241292746036924,0.584060958254824,0.5810992395464543,0.562330984682985,0.6025928022823199,0.5195436666048346,0.5928152815603216,0.6017747086940773,0.4998442044065853,0.5831551107249093,0.557938216887952,0.5363829389988577,0.6091769437250187,0.610582983885537,0.6450139529210643,0.6914317714010424,0.6035025233843234,0.555769721903321,0.6091461969946401,0.5470971749043155,0.5301686450905879,0.571858182358745,0.5053710882061137,0.5241573106397633,0.5549181205057394,0.4931115406973768,0.5467892279386365,0.5539391245372371,0.4813612115243647,0.5646088506406227,0.5319388332736376,0.5299070076667706,0.5196252292803999,0.5423638935195744,0.5703180827454654,0.7016000392113521,1.0,0.9293460047912983,0.7994149696914146,0.669522384127593,0.42189971140477167
0.5522246978687874,0.8140134484652504,1.0,0.8880724325070134,0.5816815184015455,0.4564975375889226,0.6081513967354656,0.6687657677301565,0.6588386636497013,0.6961646129995629,0.5973125497794831,0.39084935044548275,0.2836982715266849,0.292778116555675,0.250482480541771,0.25067656744933764,0.23955025229852908,0.21880657119365543,0.1931473342050609,0.21002633889550443,0.20231189603326985,0.16396335101697862,0.1379297020411827,0.13649611231330244,0.13229550833296294,0.0933368661692916,0.0827217894652138,0.02867959398252584,0.017920406076860518,0.009298399168034877,0.0,0.024558132390091192,0.027662244122197976,0.02761713018972295,0.1083257376370454,0.17799714925080484,0.22025245392375903,0.30918257572840735,0.37787406878281166,0.4346453283770693,0.4791442170085068,0.507896832611969,0.5522233755297399,0.5603889220848338,0.5641895739306796,0.5799332040621543,0.5738026145691476,0.551442069128045,0.5406578755534449,0.5574559720978542,0.5507700516731697,0.5423102866595488,0.5496037743673879,0.5508647948904661,0.5437435398640188,0.5273381997917712,0.5477968435885708,0.5335002997532788,0.5419594649634095,0.5214116919516171,0.5263070207988294,0.5265010245653181,0.5071865425475951,0.5017314663938319,0.4884447402331256,0.5130242101869793,0.4941859365085241,0.49502894744682163,0.5177650589524679,0.4903526696055718,0.5052573448956179,0.5096973734050894,0.5063080462054561,0.5416679426512641,0.5769868050160596,0.5959452927748721,0.5478642076571151,0.5291329187298933,0.5120419854524889,0.45226231722696,0.4474559968422227,0.4465526947656456,0.45082016990671075,0.4371123543781547,0.4405444004533564,0.44039465584988047,0.44082156628090857,0.4033966871645715,0.4380225130202392,0.44640429388035147,0.4156109638931166,0.40555455168202814,0.4207758416574213,0.4433365260826923,0.4488794077267161,0.49423844801737726
0.37729446725153504,0.4298909135091582,0.4880203762504649,0.5384955126547711,0.5388189707274342,0.5085535212613419,0.5138754790379051,0.5409994030896637,0.5001419504677719,0.3688167912473509,0.2509809711124879,0.2446660747782987,0.2929700234382433,0.2680100851410422,0.1848944101391671,0.16513017043274353,0.2146045591864476,0.24115654941074643,0.22519055019344253,0.19499095619318127,0.1621935291410944,0.15198613295137134,0.16319411029517436,0.18029301276228327,0.23452577262609559,0.28165930352718005,0.21188365068721032,0.10420623412521648,0.11133185887803518,0.1499143030218022,0.11000737904464211,0.10778515808580816,0.20796415402974983,0.25128248819224935,0.16579902757097126,0.10593363554211815,0.14805902618458314,0.1680724929105984,0.11336204031173183,0.07388851693385362,0.055234855730154464,0.010817766348445779,0.0,0.042022118128957564,0.04990603301772223,0.03058644663894078,0.05979095183990635,0.11054579224913208,0.13491970542785564,0.1604877133891508,0.2009745995748491,0.22810176015656192,0.24339649412740366,0.2764714201207148,0.3262543271329351,0.3651471165299818,0.39057527756493066,0.41210571034746235,0.4248232913527919,0.44171209145255985,0.4672259575874881,0.46255733216368844,0.4326372797327154,0.4305493138536192,0.44037831014882795,0.4245090048019627,0.4196556656999986,0.4389313376058506,0.42432791952971305,0.3797427640916057,0.37917501704254336,0.41464144019654053,0.40385608584788085,0.3601793577693104,0.37663138266955565,0.4331752543610007,0.4419763518898309,0.41969420761442194,0.404952694886311,0.3833433996047697,0.38725507498658174,0.4240180593498375,0.4086853418370552,0.37236023926606054,0.412691705009259,0.45222039152753607,0.4373250116476499,0.4869561446942492,0.6130288239185167,0.7381463714783497,0.8868317657008961,0.9999999999999999,0.9594971626353052,0.846931686355151,0.7281230981071822,0.5156381797479396
0.7675069539015026,0.9999999999999999,0.934743349352678,0.8669235102754125,0.5807706821479262,0.5817378543262358,0.7616739559847767,0.69355986715532,0.7559528336601855,0.7136829326710696,0.46822776530731186,0.37315799339874894,0.3496013796597327,0.2841256475208739,0.2755658623314684,0.27595238087732055,0.24700315671228726,0.2082634685563383,0.2121178959885645,0.19103866655328047,0.15895750311647805,0.14630068517987693,0.15000595829148672,0.16731444040017968,0.12272397796976897,0.08895437580158133,0.0917350103454383,0.02880447748266285,0.0,0.05304357174039093,0.023280368903361548,0.06561745829846172,0.08409080215548287,0.15031130102683588,0.23231173591906368,0.2624351198408663,0.34213044268450665,0.4354025840621535,0.47890189673067124,0.4937536298487074,0.5718169266076412,0.567892930605371,0.5728933952102429,0.580496886438038,0.5807160920606474,0.5680729640080575,0.5444328809891962,0.5705049183095381,0.5740176365428007,0.5489653950942296,0.5493208257025562,0.5687868693914921,0.5785918468662342,0.560083953193995,0.5631929558020085,0.5506143246784946,0.5177675089636427,0.528867216873377,0.5389671652427321,0.5199523104181594,0.5177318774347915,0.5101190330291898,0.49160320481997405,0.5022098247024932,0.49057295041274956,0.4833082956362371,0.48939032412869243,0.46768133835521675,0.4631373017341071,0.45963948908123375,0.4774359974278465,0.4514929579063257,0.45469502729346734,0.5044793899466126,0.49653407918112263,0.5142021138378876,0.5730943653871813,0.5600097602489115,0.5032432001195442,0.4714224262367848,0.45777421874070245,0.442436306376294,0.43171171232233785,0.43434431386293454,0.43760650599718587,0.4359925483131927,0.4083995654703137,0.43530633066106056,0.4373355878820015,0.43987115740442634,0.4335739861781824,0.42931911978695797,0.4324411246322469,0.3966388418657617,0.4498545282345385,0.4679536898099265
0.5660225034289832,0.6313167140654179,0.6681979876656233,0.8349926992269703,0.9999999999999998,0.9347421592797307,0.7695164884554796,0.6657079978612442,0.522050745630883,0.39358518546398924,0.39970097494932627,0.4398596480352119,0.4342158611092968,0.42036402351745594,0.4238244787890126,0.4576108131146016,0.4870802863629972,0.4343235033968797,0.3317651154784137,0.2914544401873514,0.28788495885773613,0.25291967599844567,0.24901338493505684,0.274134690683018,0.25829112980984775,0.24452366967074007,0.23941993891483607,0.2040615988194777,0.17950461016971664,0.17454468969777343,0.17792850666811316,0.18707607084462025,0.15382523975207257,0.11455857168318517,0.11545025123736752,0.09177024096425551,0.05781822569628564,0.051872064330935885,0.021758052713906018,0.0,0.02777216274469213,0.02674015779411487,0.00782842131715017,0.07273688766772679,0.15896994339825243,0.16061585535281164,0.16829223904026103,0.23211441457099236,0.26718699388594846,0.3171937931805576,0.39192923508489147,0.40589366664858534,0.4444277101698273,0.5216460115860333,0.536463268642986,0.5551649421196485,0.5753778302257537,0.5507189761426899,0.5898264331157308,0.6471543036922316,0.6205177294208422,0.5988626890092092,0.5947878768422136,0.5636682360468888,0.5699341723779485,0.6066880859576078,0.5965908234984152,0.5620475596377399,0.5518588797658438,0.5476278875138515,0.5490335459173789,0.5682302793334432,0.56183836453828,0.5363015424059229,0.5374883768815126,0.5348983592910224,0.5367655926024737,0.5829951568033351,0.6080906690696302,0.5897222606602909,0.605720017845104,0.6478952496820094,0.6480298916563068,0.6299383546858341,0.6499195176951033,0.6742961866606739,0.6593425651119358,0.6383310466064965,0.6402324468715163,0.641896967771432,0.6072212870393843,0.5826159284158927,0.606114259588699,0.5483315846164575,0.36352415343689837,0.3211897105041463
0.62928348509467,0.6043613663865828,0.8021806761735596,1.0,0.8722741372337209,0.6728971875690237,0.47352024369560514,0.5856697773555175,0.5545171289704085,0.48286603856212446,0.448598124987518,0.4112149481538403,0.47040497885709426,0.3302180623525571,0.35825544502168866,0.3364485920295789,0.3052959436444699,0.2959501500064037,0.27102803656311536,0.22429905082345486,0.19626168043885395,0.1401869045709931,0.11214951663706269,0.06542054844673167,0.012461059354043569,0.0,0.012461059354043569,0.00623052090235704,0.01869158025640061,0.09345793638066202,0.15887850237672319,0.23052958927514142,0.29283488429042637,0.3800622997687314,0.4392523304719853,0.4392523304719853,0.5202492166242552,0.5482865992933867,0.5700934522854966,0.5046728915542342,0.5451713335774093,0.510903421231256,0.5327102759782988,0.5202492166242552,0.5233644805852996,0.5077881572702115,0.5514018632544312,0.510903421231256,0.5669781883244521,0.557632392931453,0.5638629226084747,0.557632392931453,0.5015576275931898,0.5638629226084747,0.5171339509082777,0.557632392931453,0.5295950102623214,0.495327097916168,0.5046728915542342,0.5545171289704085,0.510903421231256,0.5015576275931898,0.5077881572702115,0.5046728915542342,0.5451713335774093,0.4890965682391462,0.510903421231256,0.4984423618772124,0.4672897140185834,0.48598130252316885,0.49221183220019066,0.4454828601490071,0.495327097916168,0.4890965682391462,0.49221183220019066,0.47352024369560514,0.4267912714689283,0.5451713335774093,0.4890965682391462,0.4890965682391462,0.47663550888510264,0.5140186869472334,0.5015576275931898,0.5015576275931898,0.5514018632544312,0.510903421231256,0.5607476586474303,0.557632392931453,0.5171339509082777,0.5358255399393431,0.5264797463012769,0.542056069616365,0.5140186869472334,0.5077881572702115,0.542056069616365,0.5856697773555175
0.46818298535290354,0.6032361629083508,0.513430401666662,0.4879668699290938,0.4433042048715561,0.3814292643793422,0.45771694976613747,0.2841348501110894,0.10693804053419614,0.1953639385200498,0.22078408198993052,0.20580929191366681,0.29681586066881904,0.2736396869532786,0.08545727139513554,0.09869918240618492,0.2255586003078043,0.1451420803379368,0.071447925774407,0.22711527877105878,0.06806136747124758,0.06914977412941037,0.21470958062612305,0.11421200920156876,0.22486779610457716,0.0,0.01878754334921251,0.42652555558278,0.2034623829392431,0.2930672730280538,0.44784883238118134,0.3400200673821359,0.5459271391188851,0.48814857114713905,0.5775960893497383,0.6287110042085879,0.5556242915592923,0.690994874807129,0.6522927579168172,0.762655301960801,0.7031153055752566,0.5921053250403666,0.6387760360439174,0.672491242180533,0.7523110809705487,0.6120776899944862,0.5954440345612999,0.5541116694131377,0.660782412071953,0.6551795947040824,0.5412444066792115,0.6337855096012472,0.5311957369156458,0.6842862609410049,0.6124966618084743,0.4095258542933665,0.5675627456674631,0.5805032862275591,0.5437083455774799,0.5527852768322765,0.5520622623696851,0.5343809533480334,0.517757248767788,0.5083651235780414,0.5479277312778843,0.6229775307643949,0.572850700041785,0.579672423923355,0.6336432849646373,0.5504297366594437,0.40336377884596253,0.44020405661803047,0.4015558994148627,0.38075004106962235,0.391617776412536,0.2506311874736583,0.43003660602449834,0.45256517633955623,0.22222431430174983,0.307056768331317,0.35835902480078974,0.3335126144995582,0.29052237681867715,0.342506526739983,0.3431880275843152,0.27939441053539826,0.328170028072053,0.35556527093535306,0.474028362212527,0.6663616113236719,0.939061478141341,0.9999999999999999,0.7946859690876886,0.4454096230277331,0.1777929439839951,0.3950734480246046
0.538384558632282,0.5777664016370507,0.4394255252283481,0.4366302917738395,0.40393201330893724,0.3775342051018796,0.362878051290856,0.23755127351373864,0.3141532447099096,0.32718478643681964,0.2038125133593841,0.23772473390138252,0.25776595999208196,0.22146520195025,0.16213289014348492,0.1579753519974353,0.12115830007766781,0.13088852121088368,0.06582402261222242,0.09796294831948826,0.08716051552532544,0.06997437556329483,0.10153985875938087,0.0,0.09108692362980403,0.09840197878012541,0.09811566192687066,0.28951281293311015,0.26803382744652693,0.3465547272225369,0.3767225884247336,0.41186431357424774,0.6482688119125868,0.5647816690101939,0.5491040155910454,0.6485396486206418,0.629773837900045,0.6038438084572979,0.6317639676240381,0.6369366872970793,0.5800780255746293,0.6793938351328045,0.5406197542904078,0.5909768829330101,0.5231833701634139,0.5631693789711838,0.6315537724568377,0.5724243822180644,0.5601225102076791,0.5757019314782188,0.5603496582969553,0.5189788047281442,0.5754020906585016,0.5211045804000369,0.54823687541376,0.5709748123930544,0.4559577247955962,0.5050000041380703,0.4859255573172031,0.5059168274934,0.4876532524970057,0.4791513536117341,0.4098410341444227,0.4424045648107972,0.5274981418182937,0.47338673187162134,0.5324149895506198,0.48503910363676944,0.47811542906636323,0.4678438241819655,0.4783447007381339,0.4234513658980414,0.40068897179408447,0.3872923506865698,0.40542332874057674,0.44433242936558337,0.34704277500807107,0.3913333457224653,0.4359056317558231,0.30169692674539483,0.36947997583968784,0.42773630908120613,0.3489256835659693,0.3898084291591313,0.39311582895443975,0.3301832924429279,0.34895207505045245,0.44726951305218876,0.42243166089581397,0.6569289468482913,1.0,0.8787329439083051,0.8849704455249738,0.6669576921424588,0.2767494651920188,0.4443357439599783
0.592389819898049,0.5617922278925792,0.5645054288299671,0.6747309288967998,0.7909763431678287,0.8967801571480636,1.0,0.994854006737115,0.8794653580931444,0.7494375720614552,0.5900962173686017,0.43723154673813425,0.42587895021785516,0.4878447025755088,0.45193434822787715,0.38028177170930966,0.39435169452001173,0.41969086777618464,0.3917631196323531,0.3985861386214781,0.4603508182430996,0.4509337289441115,0.33889836486006975,0.26680904183146437,0.2941487636922775,0.3109847813899458,0.27083347517239453,0.24221680749602606,0.23202314909641303,0.19377699149254118,0.15536916139938894,0.1638194758974566,0.1897667204212668,0.19173025383903042,0.17906561234567187,0.1481190217239744,0.0768676598285814,0.020095950518842443,0.046320189900866504,0.08610775345197808,0.04666738307412843,0.0,0.043250744534868824,0.11634630271244362,0.1281099055592257,0.1051512100554759,0.11367222771948748,0.15860811646381273,0.21314516338417416,0.2638476369612399,0.3032597981942685,0.33070055754771316,0.36967875375873505,0.43376171614686254,0.493207907695947,0.5291404697132734,0.5579186560196017,0.5787471307640749,0.5886316256871982,0.6132389478522681,0.6511467664059712,0.667335702286061,0.6636661454682179,0.6670002432900507,0.6766281176946873,0.6850495210647833,0.6888890419468588,0.6774557173642743,0.6662193230959188,0.6767602419822465,0.6818841131596838,0.6694930864275884,0.6793875437417239,0.6978619468396814,0.6699151946656973,0.622395387682215,0.6027251250347385,0.597360204382875,0.6135024054943163,0.6634452106959152,0.6986409197517864,0.7112703971782199,0.7283750484416455,0.6952499540826089,0.6105783884390106,0.5963956314530763,0.642695543176291,0.6230504581642082,0.5891762852782594,0.6535425411405399,0.7164584709653037,0.6606956628980749,0.5996754169347184,0.6530920506658743,0.6991394359709628,0.5987586149199307
0.4396141975613874,0.4685793650525868,0.7438056883431847,1.0,0.7554051096635719,0.4774935003643799,0.24966529450736435,0.19426409604657485,0.4418353418920612,0.5162919784818305,0.37330560024901394,0.3903907549482339,0.44276130024436394,0.2294419754936483,0.14574384542088906,0.1759940417857625,0.1516636457133625,0.14284542503876393,0.17787605361539605,0.13978681404590676,0.12747916833673284,0.13224973043338878,0.11161376304362858,0.0763216442859383,0.05736536106180251,0.059113457341537,0.004768080024488697,0.0,0.013606855359222347,0.061586144173411184,0.0021219777911163362,0.008278040328010494,0.06421896344245104,0.04386806591933795,0.10665148026324078,0.2013355099554945,0.2333101744365415,0.3048261992955802,0.37934577309121187,0.44298579979365454,0.4926039950425263,0.5008841819751377,0.5620656436728665,0.5607233991574995,0.615418876631977,0.5859585221695778,0.5820243602197208,0.6074156288405462,0.5563969049801111,0.5817469498726523,0.5472408335620524,0.5294046047945801,0.5346717422715545,0.515833999323713,0.5392758213167106,0.47995182026446714,0.5053537307697096,0.5133740040249128,0.5222143190200377,0.512165035150214,0.45181310911844674,0.4725501104192465,0.5205109485172857,0.5005426313928533,0.4518244781724441,0.42818808111272233,0.458651586371826,0.43711813852964454,0.4641958704757012,0.5034197195281721,0.3711856360389433,0.5476477848068253,0.5576028759770203,0.5385941900042533,0.5564087820832552,0.5237696707612713,0.5830188955112385,0.46510374266620397,0.44176320279146253,0.43870958309060415,0.3727417874728034,0.41721424669090335,0.368278184986279,0.3822670665440058,0.3869934273953364,0.3690065085361759,0.39542704361896674,0.36477759469910054,0.39074798970576086,0.35820216066709104,0.36827419040138487,0.42570717629503185,0.37124254045205596,0.3731085078181589,0.40764039017088566,0.42365979834637374
0.40558319836912166,0.5061780199369289,0.7532451172815953,1.0,0.7942868672173256,0.5596349924814105,0.34045843693779365,0.21484833139198628,0.37966340737375764,0.4665027890700079,0.41375908351773893,0.36291330806277877,0.38201497876348234,0.3328323094654928,0.256838612337014,0.23394252878345873,0.20660974876871935,0.19575300158204087,0.18287270743389492,0.19953701380759153,0.16840803093558412,0.12464737361724407,0.1814709593811774,0.15685729887354552,0.0903027041059879,0.10587774955162188,0.08626166715332925,0.05174501362614348,0.04889846603801129,0.02748754931180697,0.011204252802470616,0.0,0.02371171693323787,0.03397909741515698,0.07821687820782217,0.08937020481354546,0.13076858498192825,0.1949924291950863,0.22616575750922768,0.3279230906735141,0.3259181096639598,0.32581422723902104,0.39697671517546007,0.4448506737359604,0.41120543417275085,0.4674013468110713,0.4741081670134495,0.4823865605097777,0.48766402220845595,0.4498582331187858,0.45722061755478716,0.452774512556261,0.43468883335034414,0.41696677959032724,0.4361506942222917,0.4129480010243982,0.4040815494682896,0.3993802848065095,0.41966653865769094,0.40164450006457564,0.42298151098401054,0.40825434347345546,0.3725461703247129,0.44447607819006896,0.37780653642059336,0.3436396158164269,0.41635949978759,0.33725047326199264,0.3174768341691447,0.345221901397517,0.3261868648757975,0.32575856577079154,0.32920459154897636,0.35594417470638917,0.4167592728796464,0.4345711336251351,0.3997691677531929,0.362876452247145,0.3415072408289402,0.33000835852107785,0.32742515631739805,0.2940263587532726,0.2660475078920512,0.28517226263329887,0.25689444024138797,0.25354693454400945,0.28756247331616597,0.2284131610849777,0.2812741519038215,0.23024368617551202,0.2804602971064669,0.33619619982225607,0.20611751387151445,0.2667098764268738,0.24769153312409703,0.25573624537843953
0.6359922330596265,0.7835446756150619,0.9999999999999998,0.9665659457388991,0.6858010129765981,0.4552705002351535,0.6318599520339888,0.7508048921762616,0.7321618505522314,0.8071940729194822,0.6312485145660996,0.45793084813397356,0.40665756410954057,0.36302927164701854,0.3541205265157852,0.352124135065745,0.32660544089200316,0.31813246884410074,0.3145479775752703,0.2514031311900125,0.2339922708601006,0.21098442455564453,0.1547841256782045,0.11533326339822791,0.08723360020721754,0.054298985767613994,0.0,0.015288558206620229,0.00606414317635684,0.032691067760647896,0.08651659624742758,0.18398461140161232,0.29801350474791277,0.36793347302595786,0.4848704257673738,0.590047158417009,0.6217213173152343,0.6714458495311958,0.7029631364617833,0.7102296264640864,0.7144940632748646,0.6946071112163096,0.698448738730522,0.6718911805532034,0.6646216567880158,0.6791789259227827,0.6636236164508508,0.6730855486884693,0.7028526778950986,0.6824405508264793,0.677486293417005,0.7042450883801722,0.6855855375893367,0.6768708560331733,0.687854172789688,0.6865200211226004,0.6743675513457495,0.6560333784951748,0.6634518166785246,0.6470009002347814,0.6313557998379483,0.658110258740017,0.629395764917752,0.6290687189364349,0.6388550397059307,0.6285207494793872,0.6229436172102428,0.6027021905713016,0.6396498644404808,0.6044315855180548,0.6064960157074076,0.6378595659110249,0.6043727368604557,0.5954652750003518,0.6181759224763859,0.6262570676633137,0.6668323756578983,0.7232561180426778,0.7140481402991233,0.6541035057318244,0.6221556760519661,0.6241084531965648,0.5976888561792167,0.5730057829228704,0.5864027043490881,0.5712715276131405,0.5597701282979379,0.5903885508198833,0.5802096484484025,0.5796897566254103,0.5872890578155714,0.5934174406567437,0.5795666979006825,0.5813520895565111,0.6223963750106392,0.5733206705973238
0.535560647948855,0.5936192612305407,0.7102351991901428,0.9271266805292095,1.0,0.8832874139419697,0.7519503858828226,0.5852450915132811,0.47490199628274815,0.4366877735931851,0.43618584997953513,0.43158508512939314,0.3509972335734838,0.3967115228275803,0.44856970500536014,0.35066232273954845,0.2802352194636048,0.23923018511247612,0.2105744575553674,0.19193785237811095,0.18595661794503238,0.2067843788920824,0.20249951512636793,0.18290314173334948,0.15102510507847977,0.09705203589484024,0.11008512376160129,0.13614776290231284,0.07779078282819757,0.07475721966138371,0.09126472838854588,0.02709108934041654,0.0,0.03570381913729215,0.085624426007608,0.13298681481611635,0.16425277312802178,0.1997906201899804,0.2576236439024973,0.3268023637054573,0.3974766590506028,0.4453393653640517,0.491100539580443,0.5394880387700677,0.5576106013086295,0.582270994915641,0.5936159521510256,0.613141102619534,0.6569959121942847,0.6422940345788672,0.6345641261991471,0.6665878502043453,0.6437876683739174,0.6165846785338502,0.6339873281852256,0.6195295025050115,0.5960451927003824,0.6000803437297899,0.5964789817135626,0.5888283876222856,0.5888941119333877,0.5966441586186655,0.5896679342085612,0.595720348766619,0.6102900411573804,0.6047932703819814,0.6252432443756348,0.6276870795650036,0.6213073477108221,0.6391309510213432,0.6398533958386692,0.6721878129011752,0.7050686245424674,0.6861798873291088,0.7166297802289144,0.7763866653781756,0.7751461322401882,0.7753526512394632,0.7612620545441726,0.7034658744698772,0.6787919832424069,0.6468161316387422,0.5852602515576214,0.5869966961014809,0.6212454911257426,0.6217347348152333,0.5997093483861536,0.5643698005609442,0.5468945110953278,0.5325084714913452,0.5023754656420009,0.5455422892027372,0.5656945924594886,0.4639991521187683,0.5005879608073434,0.5683623255102549
0.3719035052977693,0.5469302484543059,0.8918792899766793,0.9999999999999999,0.7213074433824156,0.3320699126837064,0.16259030940181396,0.3850348188442001,0.4929884964210883,0.4543581941849647,0.47567547532288945,0.42414278354350743,0.2819518831013975,0.15992253007267018,0.2779276344333106,0.1704624512226782,0.17200568918555711,0.14787340290096174,0.20856032872937333,0.2061482194954137,0.14956611525528435,0.11920205019842439,0.06690867506079468,0.12251798242683709,0.10933593799994806,0.09768057545644576,0.039339456264689376,0.008355340590062599,0.06318525975060124,0.08440410658091635,0.026593486446931047,0.0,0.0726066279035224,0.116089194136549,0.1313192803921575,0.18644147502221858,0.2846489349881115,0.3471619631157946,0.4063305516380009,0.4633310765400862,0.5221092488326691,0.6353922912154106,0.5775080611081371,0.5954127702638095,0.6375473996054799,0.6251778946827469,0.6253660586358408,0.6226714099247316,0.601641979516881,0.5887154466695215,0.599647989569435,0.5774841017604748,0.5306166998708037,0.576183807629785,0.5883471189114381,0.5089977008184926,0.5699865030769453,0.4894167825494381,0.47297473647946586,0.6068705303233206,0.5646758255054976,0.46126232199915085,0.49886440754852324,0.5245919679843779,0.4506008721805299,0.5035787179152083,0.5023795646001586,0.4531238523515523,0.509258850467173,0.42318816117417746,0.46235063568887197,0.45969968641689524,0.4147408051820293,0.49836940816947406,0.4969458769236706,0.5522187925435957,0.5159860904665671,0.5308201713479861,0.5159746440707101,0.39142403223355166,0.4690370393158354,0.42855523313601845,0.41775326427765175,0.3911619399059716,0.3876846980376583,0.39837890717115815,0.3711337493645185,0.4161401187583629,0.44030762291607195,0.39267211111188083,0.4161378392641084,0.3993274002685059,0.4059352910916902,0.4318730832081548,0.3975562543682315,0.43508477280225183
0.6218715541648822,0.6026240581880833,0.6359769734715459,0.8176540020096286,0.978676123725674,1.0,0.9837941695510014,0.9613728410205525,0.8450259990417537,0.6699098890490393,0.5330311475126727,0.47722412871874376,0.5078970387578742,0.520278074348918,0.4542498339395247,0.4252724506857321,0.4553836941047988,0.4614123307479691,0.4294206514476383,0.36004125705585044,0.30779707882937346,0.3178914199427867,0.3073222272394946,0.2689654532627454,0.2623492401889752,0.23263922801919984,0.181444959236795,0.1883579283483019,0.2083576448000567,0.1694448148944906,0.11055433393665515,0.0925420495889192,0.09941135960833236,0.0717371294975056,0.015592532890613686,0.0,0.031051598940871283,0.04637402723231937,0.03693595879441258,0.055259071768393175,0.1043616350209442,0.14331723301672455,0.17373108425940098,0.21580676118956194,0.2704513823383144,0.3374621373337361,0.4049021429669645,0.45776731281511496,0.5043096765084026,0.5480777098295668,0.5761455080494027,0.5980662088297186,0.6289587403497617,0.6512072433421261,0.6619460775620805,0.6882081535529578,0.7159561533782166,0.7223029772749184,0.7308658722196909,0.7411135599977474,0.7323251970273766,0.7285436985713388,0.750340861941067,0.7692375862014837,0.7631595854335973,0.7502120335516717,0.7465737610271638,0.7495384885426724,0.7438057457618906,0.7224480874133642,0.7317566618310597,0.7653531246164925,0.724342975869232,0.6591128068915117,0.6961652301139453,0.7551262050440088,0.748547935547335,0.7387958859088866,0.7368623358332314,0.7102169377308399,0.6768502381241832,0.6639826431785644,0.6895614386546123,0.7219201635585945,0.7282069024814953,0.7410959312635028,0.739164844545985,0.698910537934261,0.6837841772269826,0.6874230655910247,0.6971759407165086,0.7425293646048089,0.7517741930792163,0.7351341354848548,0.7532670457635076,0.6802324078820018
0.4833834820579958,0.7985869296157941,1.0,0.7327968319346743,0.6879976289695606,0.42687740487214887,0.17212698190503245,0.42781812844044237,0.5002520975547092,0.3817566476716471,0.43426602727963326,0.46266627809690414,0.28413794405431847,0.222536708243079,0.23535725166576968,0.19891081578266065,0.20529515138952031,0.20528619532073428,0.16497826358160217,0.13404169393270143,0.1568177856636775,0.17259167167667322,0.1171985045969095,0.08632443015927371,0.09511710000756735,0.08943538180589228,0.05282176925994708,0.02349263641493382,0.03696021635337132,0.013233203169170094,0.0,0.02946159980954749,0.11612160636996649,0.08920787004089259,0.12352241632999877,0.2499410300078806,0.26298293628226566,0.3564881589328975,0.3945794439204509,0.4491560720055306,0.5524849283565788,0.5230210757209183,0.5939368558485616,0.5616636797322428,0.6206343800518443,0.5882008567683144,0.5490112125246717,0.652484488443949,0.529645576005816,0.5779014960264646,0.576220503069091,0.4893302624143937,0.5764916786284764,0.5171556417196884,0.5557038617858434,0.5403347052557763,0.5447133055855649,0.5300257098355232,0.531390184669404,0.5383709924847142,0.5468421848357422,0.5871435218308321,0.4927280035597021,0.5091199904899965,0.5666865015314879,0.4877905346741503,0.5303169517234751,0.49454760647680807,0.49445554045693,0.5555312542733666,0.43740734315576046,0.511164568276847,0.5100903272800041,0.5071852507987276,0.626438583344032,0.5465389982349049,0.6071543977335703,0.6336979899977677,0.5008405803185378,0.5205835652113464,0.5008745226356157,0.4584466874421161,0.4494696389662693,0.46214533671701774,0.45484183030167125,0.45667174847950026,0.5145948511205464,0.46393773212295686,0.42102838049972663,0.4728253540547044,0.4868310221020786,0.45996333061915795,0.47582881117616393,0.5001685496636898,0.4941248405760576,0.48701545004719105
0.4674232780069977,0.6896285194905984,0.9637387322550818,1.0,0.7622547741643144,0.45134089930019095,0.19387925627401262,0.39540031270155707,0.4629937478505043,0.37395757779866423,0.42185678160357204,0.36363229259684715,0.39023190030339,0.27369240804590045,0.2722867493220752,0.24740950611115786,0.23095443296899784,0.21130476851673635,0.1968367495392559,0.1729941148595527,0.15614673595042494,0.1416801413971382,0.14406650914410868,0.13078792129785513,0.06169251524701014,0.06821416228303051,0.06307445291163999,0.03886810470319718,0.01952484620483186,0.011616724449342641,0.013447004025299636,0.0,0.029059677974971,0.051159812780014746,0.09426600151097991,0.1276601143798559,0.1561083274950992,0.286368262225169,0.3028588351836222,0.3347275386901308,0.4354156310648487,0.4131043895601102,0.48347726495009247,0.4748500727590602,0.4837280585697905,0.5141730119342304,0.5053982775335085,0.49188887317723595,0.47320372503457,0.4759357829478592,0.4681416714014116,0.4422486027146043,0.43107251421755594,0.44335859493953433,0.4205716520276599,0.4119613753135645,0.42745642172016174,0.43121260018208357,0.42158303013467857,0.400094720691782,0.41645367509619213,0.40203221017016716,0.4033500346776949,0.39330268277283614,0.38819782958902915,0.38483504719407513,0.3373966623771568,0.3924681812211546,0.3826872335700275,0.3292700488452641,0.3345412697278574,0.3285946285033999,0.35504136343210824,0.3967927154876394,0.3898648384985211,0.4066586203699025,0.4110067385288086,0.4043146846369678,0.3543163139320486,0.30372159484933836,0.31313927230177435,0.2871741258163643,0.2623350079344824,0.2358636265421436,0.2805860689590482,0.272511774932255,0.2428239698515871,0.25464106682126886,0.2588379761970979,0.25056098484899775,0.2455572780927797,0.262250321519798,0.26795100255107335,0.26852751977870143,0.24965352991747147,0.2595602612590928
0.6797788769697686,0.938657804109459,0.8063862720789898,0.6880218808071428,0.7463871126907997,0.6534519541439705,0.4017309957023487,0.3133588100493925,0.38644322025279104,0.43895285604649126,0.47722105577192575,0.48620630673222875,0.4464334446301498,0.46819246369046086,0.4682733023701743,0.33429139513524464,0.24681345639777902,0.2548644487713798,0.23562218917500738,0.22324052950868067,0.21992367469427543,0.1778399960010093,0.15201911352804168,0.17210759681393148,0.19070512212952248,0.17072062945162111,0.1330184011142132,0.1228292803066417,0.13752672019903592,0.13566355513924366,0.11332398269706367,0.10306364156874076,0.09370776317643803,0.07168705688559596,0.06946488833272468,0.07395743424494317,0.055905365832059906,0.04093135950566035,0.03397283953286884,0.029696999226459297,0.03572396592227123,0.035790826388339914,0.0328624456252638,0.024330774007365497,0.0088878083251554,0.016613433379244036,0.008620202644547936,0.0,0.0756658747785145,0.1428866899744545,0.15505314880499962,0.21987085796838446,0.2873669875735015,0.3078853600198564,0.36082150427296183,0.4267225626715654,0.4515938510088582,0.4344911286669174,0.39238358895467906,0.377455607997064,0.39488892339952963,0.40835014907988343,0.4142653813356376,0.40332543410977123,0.38391660840655806,0.3845699664471387,0.38806590527643514,0.3771285650704918,0.3663653475847926,0.35850867180478935,0.3490175712206718,0.3383235785387686,0.34261704033406176,0.3621268288513887,0.35011997884803514,0.3269235367609233,0.3503097242638808,0.3769234108563705,0.3760070620752974,0.37414037964481905,0.36469637508623176,0.36974178942009533,0.38731560541063814,0.3812177975118733,0.38499852401484247,0.39117644980145694,0.4013141205793987,0.47645992530630493,0.5941284435187729,0.7736826814917639,0.9828424857752427,1.0,0.8694455205617345,0.8423088770058081,0.7754198132858883,0.45502599039727376
